PPG1,PPG2
-267.036,46.009
-262.092,45.91
-257.148,45.81
-252.204,45.708
-247.26,45.605
-242.328,45.499
-237.396,45.392
-232.476,45.283
-227.556,45.173
-222.66,45.061
-217.776,44.947
-212.904,44.831
-208.044,44.714
-203.208,44.595
-198.372,44.475
-193.572,44.353
-188.784,44.229
-184.008,44.105
-179.256,43.979
-174.516,43.851
-169.8,43.723
-165.108,43.594
-160.428,43.464
-155.772,43.332
-151.128,43.2
-146.52,43.067
-141.924,42.934
-137.34,42.799
-132.792,42.664
-128.256,42.529
-123.744,42.392
-119.256,42.255
-114.792,42.117
-110.352,41.978
-105.936,41.838
-101.544,41.698
-97.188,41.556
-92.856,41.413
-88.548,41.268
-84.276,41.122
-80.04,40.975
-75.84,40.825
-71.676,40.674
-67.548,40.52
-63.456,40.364
-59.424,40.206
-55.416,40.045
-51.468,39.881
-47.568,39.713
-43.716,39.543
-39.924,39.369
-36.192,39.191
-32.508,39.009
-28.896,38.824
-25.332,38.634
-21.852,38.44
-18.42,38.242
-15.072,38.039
-11.796,37.831
-8.58,37.619
-5.448,37.402
-2.388,37.18
0.6,36.954
3.504,36.722
6.336,36.486
9.084,36.245
11.748,35.999
14.34,35.748
16.86,35.493
19.296,35.233
21.648,34.969
23.928,34.7
26.136,34.427
28.272,34.149
30.324,33.868
32.316,33.583
34.236,33.294
36.096,33.001
37.884,32.705
39.612,32.406
41.28,32.104
42.888,31.798
44.448,31.49
45.96,31.178
47.424,30.865
48.84,30.549
50.208,30.23
51.54,29.909
52.836,29.587
54.108,29.262
55.332,28.935
56.532,28.607
57.708,28.277
58.86,27.945
59.988,27.612
61.104,27.277
62.196,26.941
63.264,26.604
64.32,26.265
65.364,25.925
66.396,25.583
67.404,25.241
68.412,24.897
69.408,24.552
70.38,24.205
71.352,23.857
72.3,23.508
73.248,23.158
74.184,22.807
75.096,22.454
76.008,22.099
76.896,21.743
77.772,21.386
78.624,21.028
79.464,20.668
80.292,20.306
81.096,19.943
81.888,19.578
82.656,19.211
83.4,18.843
84.12,18.473
84.828,18.101
85.5,17.727
86.16,17.352
86.796,16.974
87.408,16.595
87.996,16.213
88.572,15.83
89.112,15.445
89.64,15.057
90.144,14.667
90.624,14.275
91.08,13.881
91.524,13.485
91.944,13.086
92.352,12.686
92.748,12.283
93.12,11.878
93.492,11.471
93.84,11.061
94.176,10.65
94.5,10.236
94.824,9.821
95.136,9.403
95.436,8.984
95.724,8.563
96.012,8.14
96.3,7.715
96.576,7.29
96.84,6.863
97.104,6.434
97.368,6.005
97.62,5.575
97.872,5.145
98.112,4.714
98.34,4.283
98.556,3.852
98.772,3.422
98.964,2.992
99.156,2.563
99.324,2.135
99.48,1.709
99.612,1.284
99.72,0.861
99.816,0.441
99.876,0.023
99.912,-0.392
99.924,-0.804
99.9,-1.213
99.84,-1.618
99.744,-2.019
99.624,-2.415
99.456,-2.808
99.24,-3.196
98.988,-3.579
98.688,-3.958
98.352,-4.331
97.968,-4.7
97.536,-5.063
97.056,-5.421
96.528,-5.773
95.952,-6.121
95.328,-6.463
94.656,-6.8
93.936,-7.132
93.18,-7.459
92.376,-7.781
91.524,-8.099
90.636,-8.412
89.712,-8.721
88.74,-9.027
87.744,-9.328
86.712,-9.627
85.656,-9.923
84.576,-10.216
83.46,-10.507
82.332,-10.796
81.192,-11.083
80.028,-11.37
78.852,-11.656
77.676,-11.942
76.5,-12.228
75.312,-12.514
74.136,-12.801
72.96,-13.09
71.784,-13.38
70.632,-13.672
69.492,-13.967
68.364,-14.264
67.26,-14.563
66.18,-14.866
65.124,-15.172
64.092,-15.481
63.084,-15.793
62.1,-16.109
61.164,-16.429
60.24,-16.753
59.364,-17.079
58.512,-17.41
57.708,-17.744
56.928,-18.081
56.184,-18.421
55.476,-18.765
54.792,-19.111
54.156,-19.46
53.544,-19.811
52.98,-20.164
52.44,-20.518
51.936,-20.875
51.456,-21.232
51.012,-21.59
50.604,-21.948
50.22,-22.306
49.86,-22.664
49.536,-23.022
49.248,-23.378
48.972,-23.733
48.732,-24.087
48.516,-24.439
48.336,-24.788
48.168,-25.136
48.036,-25.481
47.928,-25.823
47.856,-26.162
47.808,-26.498
47.784,-26.831
47.784,-27.161
47.82,-27.487
47.892,-27.811
47.988,-28.131
48.12,-28.448
48.288,-28.762
48.48,-29.073
48.72,-29.382
48.996,-29.687
49.308,-29.991
49.656,-30.292
50.052,-30.591
50.484,-30.889
50.952,-31.185
51.48,-31.481
52.044,-31.775
52.644,-32.068
53.304,-32.362
54,-32.655
54.744,-32.949
55.536,-33.243
56.376,-33.538
57.252,-33.834
58.176,-34.131
59.148,-34.429
60.156,-34.73
61.212,-35.031
62.304,-35.335
63.444,-35.641
64.608,-35.948
65.82,-36.258
67.056,-36.57
68.316,-36.884
69.612,-37.2
70.932,-37.517
72.276,-37.837
73.644,-38.158
75.024,-38.481
76.416,-38.805
77.832,-39.13
79.248,-39.456
80.664,-39.782
82.092,-40.109
83.508,-40.436
84.936,-40.763
86.34,-41.089
87.744,-41.414
89.136,-41.738
90.516,-42.061
91.884,-42.382
93.216,-42.7
94.536,-43.016
95.832,-43.33
97.104,-43.64
98.34,-43.947
99.552,-44.25
100.74,-44.55
101.892,-44.846
103.008,-45.138
104.088,-45.425
105.132,-45.708
106.14,-45.986
107.112,-46.26
108.06,-46.529
108.96,-46.793
109.824,-47.053
110.652,-47.308
111.444,-47.559
112.2,-47.805
112.92,-48.047
113.616,-48.285
114.264,-48.519
114.888,-48.749
115.476,-48.976
116.028,-49.199
116.556,-49.42
117.048,-49.638
117.516,-49.853
117.96,-50.067
118.368,-50.279
118.752,-50.49
119.112,-50.7
119.46,-50.909
119.772,-51.119
120.06,-51.328
120.336,-51.539
120.588,-51.75
120.816,-51.963
121.032,-52.178
121.224,-52.395
121.392,-52.614
121.548,-52.837
121.692,-53.063
121.812,-53.293
121.908,-53.527
121.992,-53.765
122.064,-54.008
122.112,-54.256
122.148,-54.51
122.16,-54.769
122.148,-55.033
122.124,-55.304
122.076,-55.581
122.016,-55.865
121.932,-56.155
121.824,-56.452
121.692,-56.756
121.536,-57.067
121.368,-57.386
121.164,-57.711
120.936,-58.044
120.696,-58.385
120.42,-58.733
120.108,-59.088
119.784,-59.451
119.424,-59.821
119.04,-60.199
118.62,-60.584
118.176,-60.977
117.696,-61.377
117.192,-61.784
116.652,-62.199
116.088,-62.62
115.488,-63.048
114.852,-63.483
114.18,-63.925
113.484,-64.373
112.752,-64.828
111.984,-65.288
111.18,-65.755
110.352,-66.227
109.488,-66.705
108.588,-67.188
107.664,-67.677
106.704,-68.17
105.72,-68.668
104.7,-69.17
103.656,-69.676
102.576,-70.187
101.484,-70.7
100.356,-71.218
99.204,-71.738
98.028,-72.261
96.84,-72.786
95.616,-73.314
94.392,-73.844
93.144,-74.375
91.884,-74.907
90.612,-75.441
89.34,-75.975
88.044,-76.51
86.76,-77.045
85.464,-77.581
84.18,-78.115
82.896,-78.65
81.624,-79.184
80.352,-79.716
79.104,-80.248
77.868,-80.779
76.644,-81.308
75.456,-81.835
74.28,-82.361
73.14,-82.886
72.036,-83.408
70.956,-83.929
69.912,-84.449
68.916,-84.967
67.956,-85.483
67.032,-85.998
66.156,-86.513
65.328,-87.026
64.548,-87.539
63.816,-88.052
63.132,-88.564
62.508,-89.078
61.932,-89.592
61.404,-90.108
60.924,-90.625
60.504,-91.145
60.12,-91.668
59.796,-92.195
59.52,-92.725
59.292,-93.26
59.112,-93.801
58.968,-94.348
58.86,-94.9
58.8,-95.46
58.776,-96.028
58.776,-96.603
58.812,-97.187
58.884,-97.781
58.968,-98.383
59.076,-98.995
59.196,-99.616
59.328,-100.247
59.472,-100.889
59.628,-101.539
59.784,-102.2
59.94,-102.869
60.084,-103.546
60.228,-104.232
60.36,-104.924
60.48,-105.623
60.588,-106.326
60.672,-107.032
60.732,-107.74
60.78,-108.448
60.792,-109.153
60.792,-109.855
60.756,-110.549
60.696,-111.235
60.6,-111.908
60.492,-112.566
60.336,-113.206
60.168,-113.824
59.964,-114.417
59.736,-114.98
59.472,-115.51
59.196,-116.004
58.896,-116.456
58.56,-116.862
58.212,-117.218
57.852,-117.519
57.468,-117.761
57.072,-117.939
56.664,-118.048
56.256,-118.084
55.824,-118.042
55.404,-117.918
54.972,-117.706
54.54,-117.403
54.108,-117.003
53.688,-116.504
53.268,-115.901
52.86,-115.19
52.464,-114.368
52.08,-113.431
51.708,-112.376
51.36,-111.202
51.024,-109.904
50.7,-108.482
50.412,-106.934
50.124,-105.258
49.872,-103.454
49.632,-101.521
49.428,-99.459
49.236,-97.269
49.068,-94.952
48.912,-92.508
48.792,-89.941
48.684,-87.252
48.612,-84.444
48.54,-81.52
48.504,-78.484
48.48,-75.341
48.48,-72.094
48.492,-68.748
48.528,-65.31
48.576,-61.785
48.636,-58.179
48.708,-54.499
48.804,-50.751
48.9,-46.942
49.008,-43.08
49.14,-39.173
49.272,-35.227
49.404,-31.252
49.56,-27.255
49.716,-23.244
49.872,-19.227
50.04,-15.213
50.22,-11.209
50.388,-7.223
50.568,-3.265
50.76,0.66
50.94,4.542
51.132,8.375
51.324,12.151
51.516,15.864
51.708,19.506
51.9,23.073
52.104,26.556
52.296,29.953
52.488,33.256
52.68,36.461
52.86,39.565
53.052,42.563
53.232,45.451
53.412,48.228
53.58,50.891
53.748,53.437
53.916,55.866
54.072,58.176
54.216,60.366
54.348,62.438
54.48,64.391
54.588,66.227
54.696,67.946
54.78,69.55
54.852,71.041
54.912,72.422
54.948,73.696
54.96,74.866
54.96,75.934
54.936,76.906
54.888,77.784
54.816,78.573
54.72,79.277
54.588,79.9
54.432,80.448
54.252,80.924
54.036,81.334
53.784,81.681
53.496,81.972
53.172,82.211
52.812,82.401
52.416,82.549
51.972,82.658
51.504,82.732
50.988,82.777
50.424,82.795
49.824,82.792
49.176,82.77
48.492,82.733
47.76,82.685
46.98,82.628
46.152,82.565
45.288,82.5
44.376,82.433
43.428,82.368
42.42,82.306
41.376,82.249
40.296,82.198
39.156,82.154
37.98,82.119
36.768,82.092
35.508,82.075
34.2,82.068
32.868,82.071
31.488,82.083
30.072,82.104
28.62,82.135
27.132,82.174
25.608,82.222
24.06,82.276
22.476,82.336
20.868,82.401
19.224,82.471
17.556,82.544
15.864,82.618
14.148,82.694
12.42,82.769
10.668,82.842
8.892,82.913
7.104,82.98
5.304,83.042
3.492,83.098
1.668,83.147
-0.168,83.188
-2.004,83.221
-3.852,83.243
-5.7,83.256
-7.56,83.258
-9.408,83.248
-11.268,83.226
-13.128,83.193
-14.976,83.146
-16.824,83.087
-18.66,83.016
-20.496,82.931
-22.332,82.834
-24.156,82.725
-25.968,82.604
-27.768,82.471
-29.568,82.327
-31.344,82.171
-33.12,82.006
-34.872,81.831
-36.624,81.647
-38.352,81.455
-40.068,81.256
-41.784,81.05
-43.476,80.837
-45.144,80.62
-46.812,80.398
-48.456,80.173
-50.088,79.945
-51.708,79.715
-53.304,79.484
-54.888,79.252
-56.46,79.021
-58.02,78.79
-59.556,78.561
-61.08,78.334
-62.58,78.109
-64.068,77.887
-65.544,77.668
-66.996,77.452
-68.424,77.24
-69.84,77.032
-71.244,76.828
-72.612,76.628
-73.968,76.432
-75.312,76.239
-76.62,76.05
-77.916,75.864
-79.176,75.681
-80.412,75.5
-81.636,75.322
-82.824,75.144
-83.976,74.967
-85.104,74.791
-86.208,74.613
-87.264,74.435
-88.296,74.254
-89.292,74.07
-90.252,73.882
-91.164,73.69
-92.04,73.492
-92.88,73.287
-93.672,73.075
-94.416,72.854
-95.112,72.624
-95.76,72.384
-96.36,72.133
-96.912,71.87
-97.404,71.594
-97.848,71.305
-98.244,71.001
-98.58,70.682
-98.856,70.348
-99.084,69.997
-99.252,69.629
-99.36,69.243
-99.42,68.84
-99.42,68.418
-99.36,67.978
-99.252,67.519
-99.084,67.041
-98.868,66.543
-98.604,66.026
-98.292,65.49
-97.932,64.934
-97.524,64.359
-97.08,63.766
-96.6,63.153
-96.072,62.523
-95.508,61.874
-94.92,61.208
-94.296,60.524
-93.66,59.825
-92.988,59.109
-92.304,58.378
-91.608,57.632
-90.888,56.873
-90.168,56.1
-89.436,55.316
-88.704,54.519
-87.972,53.712
-87.24,52.896
-86.52,52.07
-85.8,51.237
-85.104,50.396
-84.408,49.549
-83.736,48.697
-83.076,47.84
-82.428,46.98
-81.816,46.117
-81.216,45.253
-80.64,44.388
-80.088,43.522
-79.56,42.658
-79.056,41.796
-78.576,40.936
-78.108,40.08
-77.676,39.227
-77.268,38.38
-76.884,37.539
-76.524,36.704
-76.176,35.876
-75.852,35.056
-75.552,34.244
-75.264,33.442
-75,32.65
-74.76,31.868
-74.532,31.097
-74.316,30.338
-74.112,29.591
-73.932,28.858
-73.776,28.137
-73.62,27.43
-73.488,26.738
-73.38,26.061
-73.284,25.399
-73.2,24.753
-73.152,24.124
-73.116,23.511
-73.116,22.916
-73.14,22.338
-73.2,21.778
-73.284,21.237
-73.416,20.715
-73.584,20.212
-73.812,19.729
-74.076,19.265
-74.4,18.822
-74.784,18.399
-75.24,17.996
-75.756,17.615
-76.356,17.255
-77.028,16.915
-77.796,16.598
-78.648,16.301
-79.596,16.027
-80.64,15.774
-81.804,15.542
-83.064,15.332
-84.444,15.143
-85.944,14.975
-87.564,14.828
-89.316,14.703
-91.188,14.597
-93.18,14.512
-95.316,14.447
-97.584,14.402
-99.972,14.375
-102.504,14.367
-105.168,14.377
-107.952,14.405
-110.868,14.45
-113.904,14.511
-117.06,14.588
-120.336,14.68
-123.732,14.786
-127.224,14.906
-130.812,15.039
-134.496,15.183
-138.276,15.34
-142.128,15.506
-146.052,15.683
-150.036,15.868
-154.068,16.062
-158.148,16.263
-162.264,16.47
-166.404,16.683
-170.556,16.902
-174.708,17.124
-178.86,17.35
-182.988,17.579
-187.092,17.809
-191.16,18.041
-195.18,18.274
-199.14,18.507
-203.04,18.74
-206.856,18.971
-210.6,19.201
-214.236,19.43
-217.788,19.655
-221.22,19.878
-224.544,20.098
-227.736,20.315
-230.808,20.528
-233.748,20.737
-236.544,20.941
-239.208,21.142
-241.716,21.339
-244.08,21.531
-246.288,21.718
-248.34,21.902
-250.248,22.081
-251.988,22.255
-253.584,22.426
-255.012,22.593
-256.296,22.755
-257.424,22.914
-258.396,23.07
-259.224,23.222
-259.896,23.371
-260.424,23.518
-260.808,23.662
-261.06,23.803
-261.18,23.943
-261.156,24.08
-261.012,24.216
-260.748,24.35
-260.352,24.484
-259.848,24.616
-259.236,24.748
-258.504,24.879
-257.676,25.009
-256.752,25.139
-255.72,25.27
-254.604,25.399
-253.404,25.529
-252.12,25.659
-250.74,25.789
-249.288,25.919
-247.764,26.048
-246.168,26.178
-244.5,26.307
-242.76,26.436
-240.96,26.564
-239.088,26.692
-237.156,26.818
-235.164,26.944
-233.124,27.068
-231.012,27.19
-228.852,27.311
-226.632,27.429
-224.352,27.544
-222.024,27.657
-219.636,27.766
-217.2,27.872
-214.716,27.973
-212.172,28.071
-209.58,28.164
-206.94,28.251
-204.24,28.334
-201.504,28.411
-198.708,28.482
-195.864,28.546
-192.972,28.604
-190.032,28.655
-187.044,28.7
-184.008,28.736
-180.936,28.766
-177.816,28.787
-174.66,28.801
-171.456,28.807
-168.216,28.804
-164.94,28.794
-161.628,28.775
-158.292,28.748
-154.92,28.713
-151.524,28.67
-148.092,28.618
-144.648,28.559
-141.192,28.491
-137.712,28.416
-134.208,28.333
-130.704,28.243
-127.2,28.145
-123.684,28.041
-120.168,27.929
-116.664,27.811
-113.16,27.687
-109.656,27.557
-106.176,27.422
-102.708,27.281
-99.264,27.135
-95.832,26.984
-92.436,26.829
-89.064,26.67
-85.716,26.507
-82.404,26.341
-79.128,26.172
-75.888,26
-72.684,25.825
-69.516,25.648
-66.396,25.47
-63.312,25.29
-60.276,25.108
-57.276,24.925
-54.324,24.742
-51.42,24.558
-48.564,24.373
-45.744,24.188
-42.972,24.003
-40.236,23.818
-37.548,23.633
-34.896,23.448
-32.292,23.264
-29.724,23.08
-27.192,22.897
-24.696,22.714
-22.236,22.532
-19.8,22.35
-17.4,22.169
-15.024,21.989
-12.684,21.809
-10.356,21.63
-8.052,21.451
-5.76,21.272
-3.492,21.093
-1.248,20.915
0.996,20.737
3.228,20.559
5.448,20.38
7.656,20.201
9.864,20.022
12.072,19.842
14.268,19.661
16.476,19.48
18.672,19.297
20.88,19.113
23.076,18.927
25.284,18.74
27.492,18.552
29.712,18.361
31.932,18.168
34.152,17.973
36.384,17.776
38.616,17.576
40.848,17.373
43.092,17.168
45.336,16.96
47.58,16.748
49.836,16.534
52.092,16.316
54.348,16.095
56.592,15.87
58.848,15.642
61.104,15.41
63.36,15.174
65.604,14.935
67.86,14.692
70.092,14.445
72.336,14.195
74.568,13.94
76.788,13.682
79.008,13.42
81.216,13.154
83.412,12.884
85.608,12.611
87.792,12.334
89.964,12.053
92.124,11.769
94.272,11.481
96.408,11.189
98.544,10.895
100.656,10.597
102.756,10.295
104.844,9.991
106.92,9.683
108.984,9.373
111.036,9.059
113.076,8.743
115.104,8.423
117.12,8.101
119.124,7.776
121.104,7.449
123.072,7.119
125.028,6.786
126.972,6.451
128.904,6.113
130.812,5.773
132.708,5.43
134.58,5.085
136.44,4.738
138.276,4.388
140.088,4.036
141.888,3.681
143.664,3.324
145.416,2.964
147.132,2.602
148.824,2.237
150.492,1.87
152.124,1.5
153.732,1.128
155.292,0.753
156.828,0.376
158.316,-0.004
159.768,-0.386
161.172,-0.771
162.528,-1.159
163.848,-1.549
165.108,-1.941
166.308,-2.336
167.46,-2.733
168.552,-3.133
169.596,-3.534
170.568,-3.938
171.468,-4.344
172.32,-4.752
173.088,-5.162
173.796,-5.573
174.432,-5.985
174.984,-6.399
175.476,-6.814
175.884,-7.23
176.208,-7.646
176.46,-8.063
176.64,-8.48
176.736,-8.897
176.748,-9.313
176.688,-9.729
176.544,-10.144
176.316,-10.558
176.016,-10.97
175.644,-11.381
175.188,-11.789
174.648,-12.196
174.036,-12.599
173.364,-13
172.608,-13.398
171.78,-13.793
170.892,-14.184
169.932,-14.571
168.912,-14.955
167.832,-15.334
166.692,-15.709
165.492,-16.079
164.244,-16.445
162.948,-16.806
161.604,-17.163
160.212,-17.514
158.784,-17.861
157.32,-18.203
155.808,-18.54
154.272,-18.872
152.712,-19.199
151.128,-19.522
149.508,-19.84
147.888,-20.153
146.232,-20.463
144.576,-20.768
142.896,-21.069
141.216,-21.367
139.524,-21.661
137.82,-21.953
136.128,-22.241
134.424,-22.527
132.72,-22.81
131.028,-23.091
129.324,-23.371
127.644,-23.649
125.952,-23.927
124.272,-24.204
122.592,-24.48
120.924,-24.756
119.268,-25.032
117.612,-25.309
115.956,-25.587
114.312,-25.866
112.68,-26.146
111.036,-26.428
109.404,-26.712
107.784,-26.997
106.152,-27.284
104.52,-27.574
102.9,-27.866
101.268,-28.16
99.636,-28.457
97.992,-28.756
96.348,-29.058
94.692,-29.361
93.036,-29.667
91.368,-29.975
89.688,-30.285
87.996,-30.596
86.304,-30.909
84.588,-31.222
82.86,-31.537
81.132,-31.852
79.38,-32.167
77.628,-32.482
75.864,-32.796
74.088,-33.109
72.312,-33.421
70.524,-33.731
68.736,-34.038
66.948,-34.343
65.16,-34.644
63.372,-34.941
61.596,-35.235
59.832,-35.524
58.08,-35.808
56.34,-36.086
54.624,-36.359
52.932,-36.626
51.276,-36.886
49.644,-37.14
48.06,-37.387
46.512,-37.627
45,-37.859
43.548,-38.083
42.156,-38.301
40.812,-38.51
39.54,-38.712
38.328,-38.906
37.188,-39.092
36.108,-39.271
35.124,-39.442
34.2,-39.606
33.372,-39.763
32.628,-39.914
31.956,-40.058
31.38,-40.196
30.888,-40.328
30.492,-40.455
30.18,-40.577
29.952,-40.694
29.808,-40.808
29.76,-40.918
29.796,-41.026
29.916,-41.131
30.12,-41.234
30.408,-41.336
30.768,-41.437
31.2,-41.538
31.692,-41.64
32.268,-41.742
32.892,-41.846
33.576,-41.952
34.308,-42.06
35.1,-42.171
35.928,-42.286
36.792,-42.404
37.692,-42.527
38.616,-42.654
39.564,-42.786
40.524,-42.924
41.496,-43.066
42.48,-43.215
43.464,-43.368
44.436,-43.528
45.396,-43.694
46.356,-43.866
47.292,-44.043
48.204,-44.227
49.092,-44.416
49.944,-44.611
50.772,-44.811
51.552,-45.017
52.308,-45.227
53.016,-45.442
53.676,-45.662
54.288,-45.885
54.864,-46.112
55.38,-46.341
55.86,-46.574
56.28,-46.809
56.652,-47.045
56.988,-47.282
57.264,-47.52
57.492,-47.759
57.672,-47.997
57.816,-48.234
57.912,-48.469
57.96,-48.703
57.972,-48.934
57.948,-49.163
57.888,-49.388
57.792,-49.609
57.66,-49.827
57.504,-50.039
57.324,-50.247
57.12,-50.449
56.892,-50.646
56.64,-50.837
56.376,-51.022
56.112,-51.201
55.824,-51.373
55.536,-51.539
55.236,-51.698
54.936,-51.851
54.624,-51.997
54.324,-52.137
54.036,-52.27
53.736,-52.397
53.46,-52.518
53.184,-52.634
52.92,-52.744
52.668,-52.849
52.428,-52.949
52.212,-53.044
52.008,-53.136
51.816,-53.225
51.648,-53.31
51.504,-53.394
51.384,-53.475
51.276,-53.555
51.192,-53.635
51.132,-53.714
51.096,-53.795
51.084,-53.876
51.096,-53.96
51.132,-54.046
51.204,-54.136
51.288,-54.23
51.408,-54.328
51.54,-54.432
51.708,-54.541
51.9,-54.658
52.128,-54.781
52.368,-54.913
52.644,-55.052
52.932,-55.201
53.256,-55.359
53.604,-55.527
53.976,-55.705
54.372,-55.893
54.804,-56.093
55.248,-56.303
55.716,-56.526
56.196,-56.759
56.712,-57.005
57.24,-57.262
57.792,-57.531
58.368,-57.812
58.956,-58.104
59.568,-58.408
60.192,-58.724
60.828,-59.05
61.476,-59.387
62.136,-59.734
62.82,-60.092
63.504,-60.459
64.2,-60.834
64.896,-61.219
65.604,-61.611
66.324,-62.01
67.032,-62.416
67.752,-62.827
68.472,-63.244
69.192,-63.666
69.912,-64.091
70.632,-64.519
71.352,-64.949
72.06,-65.381
72.756,-65.814
73.452,-66.247
74.136,-66.679
74.82,-67.11
75.492,-67.539
76.152,-67.966
76.788,-68.39
77.424,-68.81
78.048,-69.226
78.648,-69.638
79.248,-70.045
79.812,-70.447
80.376,-70.844
80.916,-71.236
81.444,-71.622
81.948,-72.003
82.44,-72.379
82.908,-72.749
83.352,-73.115
83.772,-73.476
84.18,-73.833
84.564,-74.186
84.912,-74.536
85.248,-74.883
85.56,-75.228
85.836,-75.572
86.088,-75.916
86.316,-76.26
86.508,-76.605
86.664,-76.953
86.796,-77.303
86.892,-77.658
86.964,-78.017
86.988,-78.382
86.976,-78.755
86.94,-79.135
86.844,-79.524
86.724,-79.922
86.556,-80.332
86.352,-80.752
86.1,-81.184
85.812,-81.629
85.476,-82.087
85.092,-82.559
84.672,-83.044
84.204,-83.544
83.688,-84.058
83.136,-84.586
82.536,-85.128
81.9,-85.683
81.216,-86.251
80.496,-86.832
79.74,-87.424
78.948,-88.026
78.12,-88.638
77.268,-89.257
76.38,-89.882
75.456,-90.511
74.52,-91.142
73.56,-91.773
72.588,-92.402
71.592,-93.025
70.596,-93.641
69.576,-94.246
68.568,-94.836
67.56,-95.41
66.552,-95.963
65.544,-96.491
64.56,-96.992
63.588,-97.46
62.628,-97.893
61.692,-98.287
60.792,-98.636
59.916,-98.938
59.064,-99.188
58.26,-99.381
57.492,-99.515
56.76,-99.584
56.076,-99.584
55.428,-99.512
54.828,-99.364
54.276,-99.136
53.772,-98.824
53.328,-98.425
52.92,-97.935
52.56,-97.352
52.26,-96.673
51.996,-95.894
51.792,-95.013
51.624,-94.029
51.504,-92.94
51.42,-91.743
51.384,-90.438
51.384,-89.024
51.42,-87.5
51.48,-85.867
51.576,-84.124
51.696,-82.272
51.828,-80.312
51.984,-78.244
52.164,-76.072
52.344,-73.797
52.536,-71.421
52.728,-68.948
52.932,-66.38
53.112,-63.72
53.304,-60.974
53.472,-58.144
53.628,-55.236
53.772,-52.254
53.892,-49.203
53.976,-46.089
54.048,-42.918
54.084,-39.694
54.096,-36.424
54.072,-33.114
54.012,-29.77
53.904,-26.4
53.772,-23.008
53.592,-19.602
53.376,-16.188
53.124,-12.773
52.824,-9.364
52.488,-5.966
52.104,-2.586
51.684,0.77
51.216,4.095
50.712,7.385
50.172,10.632
49.596,13.831
48.984,16.978
48.336,20.067
47.652,23.094
46.932,26.053
46.188,28.941
45.408,31.755
44.604,34.49
43.776,37.144
42.912,39.713
42.036,42.196
41.136,44.59
40.212,46.894
39.264,49.106
38.304,51.226
37.332,53.253
36.336,55.186
35.328,57.026
34.296,58.774
33.264,60.429
32.208,61.993
31.152,63.468
30.072,64.855
28.992,66.156
27.888,67.373
26.784,68.509
25.668,69.566
24.528,70.546
23.388,71.453
22.236,72.29
21.072,73.06
19.896,73.766
18.708,74.412
17.508,75
16.296,75.534
15.072,76.018
13.848,76.455
12.6,76.849
11.34,77.202
10.08,77.518
8.796,77.799
7.512,78.051
6.216,78.274
4.896,78.472
3.576,78.647
2.256,78.803
0.912,78.942
-0.432,79.065
-1.776,79.175
-3.132,79.275
-4.5,79.365
-5.868,79.448
-7.236,79.524
-8.604,79.595
-9.984,79.663
-11.352,79.728
-12.732,79.792
-14.1,79.854
-15.468,79.915
-16.836,79.976
-18.192,80.037
-19.548,80.098
-20.892,80.16
-22.236,80.222
-23.568,80.284
-24.9,80.346
-26.208,80.407
-27.516,80.468
-28.812,80.528
-30.096,80.586
-31.368,80.642
-32.64,80.696
-33.888,80.746
-35.124,80.793
-36.36,80.837
-37.572,80.875
-38.772,80.908
-39.972,80.936
-41.16,80.958
-42.324,80.974
-43.488,80.982
-44.64,80.984
-45.78,80.977
-46.908,80.963
-48.036,80.941
-49.152,80.911
-50.256,80.872
-51.348,80.825
-52.44,80.769
-53.52,80.705
-54.588,80.632
-55.656,80.55
-56.712,80.46
-57.768,80.362
-58.812,80.256
-59.856,80.142
-60.888,80.02
-61.92,79.89
-62.94,79.754
-63.96,79.611
-64.968,79.461
-65.976,79.306
-66.972,79.144
-67.968,78.977
-68.964,78.805
-69.948,78.628
-70.92,78.446
-71.892,78.261
-72.864,78.071
-73.824,77.878
-74.784,77.682
-75.732,77.483
-76.68,77.281
-77.616,77.076
-78.54,76.869
-79.464,76.659
-80.388,76.448
-81.3,76.234
-82.2,76.018
-83.1,75.8
-83.988,75.58
-84.876,75.357
-85.764,75.132
-86.628,74.905
-87.504,74.675
-88.356,74.442
-89.22,74.206
-90.06,73.966
-90.912,73.723
-91.74,73.475
-92.568,73.223
-93.396,72.965
-94.212,72.702
-95.016,72.433
-95.82,72.157
-96.624,71.875
-97.404,71.584
-98.184,71.286
-98.952,70.978
-99.708,70.662
-100.464,70.335
-101.208,69.998
-101.928,69.649
-102.648,69.289
-103.344,68.917
-104.028,68.532
-104.7,68.133
-105.348,67.721
-105.984,67.294
-106.596,66.853
-107.184,66.396
-107.748,65.924
-108.3,65.436
-108.816,64.932
-109.308,64.411
-109.764,63.874
-110.196,63.32
-110.604,62.75
-110.976,62.162
-111.312,61.558
-111.612,60.937
-111.876,60.3
-112.116,59.646
-112.32,58.976
-112.476,58.291
-112.608,57.59
-112.704,56.875
-112.764,56.145
-112.788,55.402
-112.788,54.645
-112.752,53.877
-112.68,53.097
-112.596,52.306
-112.476,51.505
-112.344,50.696
-112.176,49.878
-112.008,49.054
-111.828,48.223
-111.636,47.388
-111.444,46.548
-111.24,45.706
-111.048,44.863
-110.868,44.018
-110.712,43.174
-110.568,42.332
-110.448,41.493
-110.352,40.658
-110.304,39.827
-110.292,39.003
-110.34,38.186
-110.436,37.378
-110.592,36.578
-110.808,35.789
-111.108,35.011
-111.468,34.245
-111.924,33.493
-112.464,32.754
-113.1,32.03
-113.82,31.321
-114.66,30.628
-115.596,29.953
-116.64,29.294
-117.792,28.654
-119.064,28.032
-120.444,27.429
-121.956,26.846
-123.576,26.282
-125.328,25.738
-127.2,25.214
-129.18,24.711
-131.292,24.229
-133.524,23.768
-135.864,23.327
-138.324,22.908
-140.904,22.509
-143.58,22.132
-146.364,21.775
-149.256,21.439
-152.232,21.124
-155.304,20.83
-158.472,20.556
-161.7,20.302
-165.012,20.067
-168.384,19.853
-171.816,19.658
-175.296,19.482
-178.824,19.325
-182.388,19.186
-185.976,19.065
-189.588,18.963
-193.2,18.877
-196.836,18.808
-200.448,18.756
-204.06,18.72
-207.648,18.7
-211.2,18.695
-214.728,18.706
-218.208,18.73
-221.628,18.769
-225,18.821
-228.3,18.886
-231.528,18.964
-234.684,19.054
-237.744,19.156
-240.72,19.269
-243.588,19.393
-246.36,19.528
-249.036,19.672
-251.592,19.826
-254.028,19.989
-256.344,20.16
-258.54,20.34
-260.616,20.527
-262.56,20.722
-264.372,20.923
-266.052,21.131
-267.6,21.345
-269.016,21.564
-270.3,21.789
-271.44,22.018
-272.448,22.252
-273.324,22.489
-274.056,22.731
-274.668,22.975
-275.136,23.222
-275.472,23.472
-275.688,23.724
-275.76,23.978
-275.712,24.234
-275.544,24.49
-275.256,24.748
-274.848,25.006
-274.308,25.264
-273.672,25.522
-272.904,25.78
-272.04,26.038
-271.068,26.294
-269.976,26.55
-268.8,26.804
-267.504,27.056
-266.124,27.307
-264.648,27.556
-263.076,27.802
-261.408,28.046
-259.656,28.287
-257.808,28.526
-255.876,28.761
-253.86,28.993
-251.772,29.222
-249.588,29.447
-247.332,29.668
-245.004,29.886
-242.592,30.099
-240.096,30.308
-237.54,30.513
-234.9,30.714
-232.188,30.909
-229.404,31.1
-226.536,31.287
-223.608,31.468
-220.608,31.644
-217.548,31.816
-214.404,31.981
-211.2,32.142
-207.924,32.297
-204.576,32.447
-201.168,32.591
-197.7,32.73
-194.16,32.863
-190.56,32.99
-186.9,33.111
-183.18,33.226
-179.4,33.336
-175.56,33.439
-171.672,33.537
-167.736,33.628
-163.74,33.713
-159.696,33.792
-155.604,33.865
-151.476,33.932
-147.312,33.992
-143.1,34.046
-138.864,34.094
-134.592,34.136
-130.296,34.171
-125.976,34.2
-121.644,34.223
-117.288,34.239
-112.932,34.249
-108.564,34.253
-104.196,34.251
-99.828,34.243
-95.472,34.228
-91.116,34.207
-86.784,34.181
-82.464,34.148
-78.18,34.109
-73.92,34.065
-69.684,34.014
-65.496,33.958
-61.332,33.896
-57.228,33.829
-53.16,33.756
-49.152,33.677
-45.192,33.594
-41.292,33.505
-37.44,33.411
-33.66,33.312
-29.94,33.207
-26.292,33.099
-22.704,32.985
-19.176,32.867
-15.732,32.744
-12.348,32.617
-9.036,32.486
-5.796,32.351
-2.616,32.211
0.48,32.068
3.516,31.921
6.492,31.771
9.396,31.617
12.24,31.46
15.024,31.3
17.748,31.137
20.412,30.97
23.028,30.801
25.596,30.63
28.104,30.456
30.576,30.28
33.012,30.102
35.4,29.921
37.752,29.739
40.08,29.555
42.384,29.369
44.652,29.182
46.908,28.993
49.14,28.804
51.36,28.613
53.568,28.421
55.764,28.228
57.948,28.034
60.132,27.84
62.316,27.644
64.5,27.449
66.684,27.252
68.868,27.055
71.052,26.858
73.248,26.66
75.444,26.462
77.652,26.263
79.86,26.064
82.08,25.864
84.288,25.664
86.508,25.463
88.74,25.261
90.96,25.059
93.18,24.856
95.4,24.651
97.608,24.446
99.804,24.24
102,24.032
104.184,23.823
106.344,23.612
108.48,23.399
110.604,23.185
112.692,22.968
114.756,22.749
116.784,22.527
118.776,22.303
120.732,22.075
122.64,21.845
124.512,21.611
126.324,21.374
128.1,21.134
129.816,20.889
131.484,20.641
133.08,20.389
134.64,20.132
136.128,19.871
137.556,19.606
138.924,19.336
140.232,19.061
141.48,18.782
142.668,18.498
143.784,18.209
144.852,17.916
145.86,17.618
146.82,17.315
147.72,17.007
148.56,16.695
149.364,16.379
150.108,16.058
150.816,15.733
151.488,15.404
152.112,15.071
152.712,14.734
153.288,14.393
153.828,14.049
154.344,13.702
154.848,13.352
155.34,12.999
155.808,12.644
156.288,12.286
156.756,11.926
157.224,11.564
157.692,11.201
158.172,10.836
158.664,10.469
159.168,10.101
159.684,9.732
160.224,9.362
160.776,8.992
161.34,8.62
161.94,8.248
162.552,7.875
163.188,7.502
163.848,7.127
164.52,6.752
165.216,6.377
165.936,6
166.656,5.623
167.4,5.244
168.156,4.865
168.924,4.484
169.692,4.101
170.46,3.717
171.216,3.33
171.984,2.942
172.728,2.551
173.448,2.157
174.156,1.76
174.84,1.361
175.488,0.957
176.112,0.55
176.676,0.14
177.204,-0.275
177.672,-0.695
178.092,-1.119
178.44,-1.548
178.728,-1.981
178.944,-2.42
179.076,-2.864
179.136,-3.313
179.1,-3.768
178.98,-4.228
178.776,-4.694
178.476,-5.165
178.068,-5.641
177.564,-6.123
176.964,-6.61
176.268,-7.102
175.452,-7.599
174.54,-8.101
173.52,-8.607
172.404,-9.118
171.18,-9.633
169.86,-10.151
168.432,-10.673
166.908,-11.198
165.288,-11.725
163.584,-12.255
161.784,-12.787
159.9,-13.321
157.932,-13.857
155.892,-14.393
153.78,-14.929
151.596,-15.466
149.352,-16.003
147.048,-16.54
144.708,-17.075
142.308,-17.61
139.872,-18.143
137.4,-18.674
134.904,-19.203
132.384,-19.73
129.84,-20.254
127.296,-20.776
124.74,-21.295
122.196,-21.811
119.64,-22.324
117.108,-22.833
114.588,-23.339
112.092,-23.842
109.62,-24.342
107.184,-24.838
104.772,-25.331
102.408,-25.821
100.08,-26.307
97.8,-26.791
95.568,-27.272
93.396,-27.749
91.26,-28.225
89.196,-28.697
87.18,-29.168
85.224,-29.636
83.328,-30.103
81.492,-30.568
79.728,-31.031
78.012,-31.493
76.368,-31.954
74.784,-32.415
73.272,-32.874
71.808,-33.333
70.416,-33.792
69.084,-34.25
67.812,-34.708
66.6,-35.167
65.448,-35.625
64.356,-36.084
63.324,-36.543
62.34,-37.002
61.416,-37.461
60.54,-37.921
59.712,-38.381
58.944,-38.841
58.224,-39.301
57.552,-39.761
56.928,-40.221
56.352,-40.681
55.812,-41.14
55.32,-41.598
54.876,-42.055
54.468,-42.512
54.108,-42.966
53.784,-43.419
53.496,-43.871
53.244,-44.319
53.04,-44.766
52.86,-45.209
52.728,-45.65
52.62,-46.086
52.548,-46.519
52.512,-46.948
52.512,-47.373
52.548,-47.793
52.608,-48.208
52.704,-48.618
52.824,-49.023
52.98,-49.422
53.16,-49.815
53.376,-50.202
53.616,-50.583
53.892,-50.958
54.18,-51.326
54.504,-51.687
54.852,-52.043
55.224,-52.391
55.62,-52.733
56.052,-53.069
56.496,-53.398
56.964,-53.721
57.444,-54.037
57.96,-54.347
58.488,-54.652
59.028,-54.951
59.604,-55.244
60.18,-55.532
60.78,-55.816
61.392,-56.095
62.028,-56.369
62.676,-56.64
63.336,-56.906
64.008,-57.17
64.68,-57.431
65.376,-57.689
66.084,-57.945
66.792,-58.2
67.524,-58.452
68.256,-58.704
68.988,-58.955
69.732,-59.206
70.488,-59.457
71.244,-59.707
72,-59.959
72.768,-60.211
73.536,-60.464
74.304,-60.718
75.084,-60.974
75.864,-61.231
76.632,-61.49
77.412,-61.751
78.192,-62.014
78.96,-62.279
79.74,-62.545
80.508,-62.814
81.276,-63.085
82.032,-63.357
82.788,-63.632
83.532,-63.908
84.276,-64.186
85.008,-64.466
85.728,-64.747
86.436,-65.03
87.132,-65.313
87.804,-65.598
88.476,-65.883
89.124,-66.17
89.748,-66.456
90.348,-66.744
90.936,-67.031
91.5,-67.319
92.028,-67.607
92.532,-67.894
93.012,-68.182
93.456,-68.469
93.864,-68.755
94.248,-69.042
94.584,-69.327
94.884,-69.613
95.148,-69.898
95.376,-70.182
95.556,-70.466
95.7,-70.75
95.784,-71.033
95.844,-71.317
95.844,-71.6
95.796,-71.883
95.712,-72.166
95.568,-72.45
95.388,-72.734
95.148,-73.018
94.872,-73.304
94.536,-73.59
94.164,-73.877
93.744,-74.165
93.276,-74.454
92.76,-74.744
92.208,-75.036
91.608,-75.33
90.984,-75.625
90.3,-75.922
89.592,-76.221
88.848,-76.521
88.08,-76.823
87.276,-77.127
86.436,-77.432
85.584,-77.739
84.708,-78.048
83.808,-78.358
82.896,-78.669
81.96,-78.982
81.024,-79.296
80.076,-79.61
79.128,-79.926
78.168,-80.242
77.208,-80.558
76.248,-80.875
75.3,-81.191
74.364,-81.508
73.428,-81.824
72.504,-82.14
71.592,-82.455
70.704,-82.769
69.828,-83.083
68.964,-83.396
68.124,-83.708
67.308,-84.019
66.516,-84.33
65.748,-84.639
65.004,-84.948
64.284,-85.257
63.588,-85.565
62.916,-85.874
62.28,-86.182
61.656,-86.492
61.056,-86.802
60.492,-87.114
59.94,-87.428
59.412,-87.745
58.908,-88.065
58.416,-88.388
57.948,-88.716
57.492,-89.049
57.048,-89.387
56.628,-89.731
56.22,-90.083
55.812,-90.442
55.416,-90.809
55.032,-91.186
54.648,-91.571
54.264,-91.967
53.892,-92.373
53.508,-92.789
53.124,-93.217
52.74,-93.656
52.356,-94.107
51.96,-94.569
51.552,-95.043
51.144,-95.527
50.724,-96.023
50.304,-96.528
49.872,-97.043
49.428,-97.567
48.972,-98.098
48.504,-98.636
48.036,-99.178
47.544,-99.724
47.052,-100.271
46.56,-100.818
46.056,-101.362
45.552,-101.901
45.036,-102.431
44.52,-102.951
44.004,-103.458
43.488,-103.948
42.972,-104.417
42.456,-104.863
41.952,-105.281
41.46,-105.668
40.968,-106.019
40.488,-106.332
40.02,-106.601
39.576,-106.823
39.132,-106.993
38.712,-107.106
38.316,-107.16
37.932,-107.148
37.572,-107.068
37.236,-106.914
36.912,-106.684
36.624,-106.372
36.348,-105.975
36.108,-105.49
35.88,-104.913
35.676,-104.24
35.496,-103.47
35.34,-102.598
35.208,-101.622
35.088,-100.541
34.992,-99.353
34.92,-98.055
34.86,-96.647
34.812,-95.129
34.788,-93.5
34.764,-91.759
34.752,-89.908
34.74,-87.947
34.752,-85.878
34.752,-83.702
34.752,-81.422
34.764,-79.04
34.764,-76.559
34.752,-73.982
34.74,-71.313
34.716,-68.557
34.68,-65.718
34.632,-62.801
34.572,-59.81
34.488,-56.752
34.392,-53.633
34.272,-50.458
34.116,-47.233
33.948,-43.965
33.756,-40.662
33.54,-37.328
33.288,-33.972
33.012,-30.6
32.712,-27.22
32.376,-23.838
32.004,-20.461
31.608,-17.096
31.176,-13.749
30.708,-10.429
30.216,-7.14
29.676,-3.89
29.112,-0.684
28.512,2.471
27.876,5.571
27.204,8.609
26.496,11.582
25.752,14.484
24.972,17.311
24.156,20.059
23.304,22.725
22.416,25.305
21.48,27.798
20.508,30.2
19.5,32.51
18.456,34.726
17.364,36.848
16.224,38.874
15.06,40.804
13.836,42.64
12.576,44.38
11.28,46.026
9.936,47.579
8.544,49.042
7.116,50.414
5.64,51.7
4.116,52.901
2.556,54.02
0.948,55.06
-0.696,56.023
-2.388,56.915
-4.128,57.736
-5.892,58.493
-7.704,59.187
-9.552,59.823
-11.448,60.404
-13.368,60.935
-15.324,61.419
-17.304,61.86
-19.308,62.262
-21.348,62.628
-23.412,62.962
-25.488,63.268
-27.588,63.549
-29.7,63.807
-31.824,64.047
-33.948,64.272
-36.084,64.483
-38.208,64.684
-40.332,64.877
-42.456,65.063
-44.556,65.246
-46.644,65.427
-48.72,65.608
-50.76,65.79
-52.776,65.973
-54.756,66.16
-56.712,66.351
-58.62,66.546
-60.48,66.746
-62.304,66.952
-64.08,67.163
-65.796,67.379
-67.464,67.601
-69.06,67.827
-70.608,68.058
-72.096,68.292
-73.524,68.53
-74.868,68.77
-76.164,69.011
-77.388,69.254
-78.54,69.496
-79.62,69.737
-80.628,69.975
-81.576,70.211
-82.452,70.442
-83.268,70.669
-84,70.889
-84.684,71.102
-85.284,71.307
-85.836,71.503
-86.316,71.69
-86.748,71.866
-87.12,72.031
-87.432,72.184
-87.696,72.325
-87.912,72.453
-88.068,72.567
-88.2,72.668
-88.284,72.755
-88.332,72.828
-88.344,72.888
-88.32,72.932
-88.272,72.963
-88.2,72.981
-88.116,72.984
-88.008,72.974
-87.888,72.951
-87.756,72.916
-87.612,72.869
-87.456,72.81
-87.312,72.74
-87.156,72.661
-87.012,72.571
-86.868,72.473
-86.736,72.367
-86.604,72.254
-86.496,72.134
-86.4,72.008
-86.316,71.878
-86.244,71.744
-86.196,71.606
-86.16,71.466
-86.148,71.324
-86.148,71.182
-86.184,71.039
-86.232,70.896
-86.304,70.755
-86.388,70.615
-86.496,70.478
-86.628,70.343
-86.784,70.211
-86.952,70.083
-87.144,69.959
-87.348,69.838
-87.564,69.722
-87.804,69.611
-88.044,69.504
-88.308,69.401
-88.584,69.303
-88.86,69.209
-89.148,69.119
-89.436,69.033
-89.736,68.951
-90.048,68.871
-90.348,68.794
-90.66,68.719
-90.972,68.645
-91.284,68.573
-91.596,68.5
-91.908,68.427
-92.22,68.353
-92.532,68.277
-92.844,68.197
-93.168,68.114
-93.48,68.027
-93.816,67.933
-94.14,67.834
-94.488,67.727
-94.836,67.611
-95.208,67.486
-95.592,67.351
-96,67.206
-96.432,67.048
-96.9,66.877
-97.392,66.692
-97.932,66.493
-98.508,66.279
-99.132,66.049
-99.816,65.802
-100.56,65.537
-101.364,65.255
-102.24,64.954
-103.2,64.634
-104.232,64.294
-105.36,63.935
-106.572,63.555
-107.88,63.155
-109.296,62.734
-110.82,62.293
-112.452,61.831
-114.204,61.348
-116.076,60.845
-118.068,60.321
-120.18,59.777
-122.412,59.214
-124.788,58.63
-127.284,58.028
-129.912,57.407
-132.66,56.768
-135.54,56.112
-138.54,55.439
-141.672,54.75
-144.912,54.046
-148.272,53.328
-151.74,52.596
-155.316,51.851
-158.988,51.095
-162.756,50.329
-166.596,49.552
-170.52,48.767
-174.504,47.975
-178.548,47.175
-182.64,46.371
-186.78,45.562
-190.932,44.75
-195.108,43.935
-199.284,43.12
-203.46,42.304
-207.612,41.49
-211.728,40.677
-215.808,39.868
-219.84,39.063
-223.8,38.263
-227.688,37.47
-231.48,36.683
-235.176,35.905
-238.764,35.136
-242.232,34.376
-245.58,33.628
-248.772,32.891
-251.82,32.166
-254.712,31.455
-257.436,30.757
-259.992,30.074
-262.368,29.406
-264.564,28.755
-266.556,28.119
-268.368,27.501
-269.976,26.9
-271.38,26.317
-272.58,25.752
-273.588,25.207
-274.38,24.68
-274.956,24.173
-275.34,23.686
-275.52,23.219
-275.496,22.773
-275.268,22.346
-274.836,21.941
-274.224,21.556
-273.42,21.192
-272.424,20.849
-271.248,20.527
-269.904,20.226
-268.392,19.946
-266.724,19.686
-264.888,19.447
-262.908,19.229
-260.784,19.031
-258.528,18.853
-256.14,18.695
-253.632,18.556
-251.016,18.437
-248.28,18.337
-245.46,18.255
-242.532,18.192
-239.532,18.147
-236.448,18.12
-233.292,18.109
-230.064,18.115
-226.776,18.137
-223.44,18.175
-220.056,18.229
-216.636,18.297
-213.168,18.379
-209.676,18.475
-206.148,18.583
-202.596,18.705
-199.032,18.839
-195.444,18.984
-191.856,19.14
-188.244,19.306
-184.632,19.483
-181.02,19.668
-177.396,19.863
-173.784,20.065
-170.16,20.276
-166.548,20.493
-162.936,20.717
-159.336,20.948
-155.736,21.184
-152.148,21.425
-148.572,21.67
-144.996,21.92
-141.42,22.174
-137.868,22.431
-134.316,22.691
-130.776,22.954
-127.236,23.219
-123.708,23.485
-120.192,23.753
-116.676,24.023
-113.16,24.293
-109.656,24.563
-106.164,24.834
-102.672,25.105
-99.18,25.375
-95.688,25.645
-92.208,25.914
-88.728,26.182
-85.248,26.449
-81.768,26.715
-78.288,26.979
-74.82,27.241
-71.352,27.502
-67.884,27.76
-64.428,28.016
-60.96,28.27
-57.504,28.522
-54.06,28.771
-50.616,29.017
-47.172,29.26
-43.752,29.501
-40.332,29.738
-36.912,29.972
-33.516,30.203
-30.132,30.431
-26.76,30.655
-23.412,30.875
-20.076,31.092
-16.752,31.305
-13.464,31.514
-10.188,31.719
-6.948,31.919
-3.732,32.116
-0.54,32.308
2.604,32.495
5.736,32.678
8.82,32.856
11.868,33.029
14.88,33.197
17.844,33.36
20.784,33.518
23.664,33.67
26.508,33.817
29.304,33.959
32.052,34.095
34.752,34.225
37.404,34.349
39.996,34.467
42.552,34.579
45.06,34.685
47.508,34.785
49.92,34.879
52.272,34.966
54.588,35.046
56.844,35.12
59.052,35.187
61.224,35.248
63.348,35.302
65.424,35.349
67.464,35.389
69.456,35.422
71.412,35.448
73.332,35.467
75.216,35.48
77.064,35.485
78.888,35.483
80.676,35.473
82.428,35.457
84.168,35.434
85.872,35.403
87.552,35.366
89.208,35.321
90.852,35.27
92.472,35.211
94.08,35.145
95.664,35.073
97.236,34.994
98.796,34.908
100.344,34.815
101.88,34.716
103.392,34.611
104.904,34.499
106.392,34.381
107.88,34.257
109.344,34.128
110.796,33.992
112.236,33.852
113.664,33.706
115.068,33.555
116.46,33.399
117.84,33.238
119.196,33.074
120.528,32.904
121.836,32.731
123.12,32.555
124.368,32.375
125.604,32.191
126.804,32.005
127.968,31.815
129.096,31.624
130.188,31.43
131.244,31.234
132.264,31.036
133.236,30.836
134.172,30.635
135.06,30.433
135.9,30.23
136.692,30.025
137.436,29.821
138.132,29.615
138.768,29.409
139.368,29.203
139.908,28.997
140.4,28.791
140.844,28.584
141.228,28.378
141.564,28.172
141.852,27.966
142.092,27.761
142.284,27.555
142.428,27.35
142.536,27.146
142.584,26.941
142.608,26.736
142.584,26.532
142.524,26.328
142.416,26.124
142.284,25.919
142.128,25.715
141.936,25.51
141.72,25.305
141.468,25.099
141.204,24.893
140.916,24.686
140.616,24.478
140.292,24.27
139.956,24.06
139.608,23.849
139.248,23.636
138.876,23.423
138.492,23.207
138.096,22.99
137.7,22.771
137.292,22.55
136.884,22.328
136.464,22.103
136.032,21.876
135.6,21.647
135.156,21.415
134.7,21.181
134.232,20.945
133.752,20.707
133.26,20.466
132.756,20.222
132.228,19.977
131.676,19.728
131.112,19.478
130.524,19.225
129.9,18.97
129.264,18.712
128.58,18.452
127.884,18.191
127.14,17.927
126.36,17.661
125.544,17.393
124.692,17.123
123.792,16.851
122.844,16.578
121.86,16.303
120.828,16.027
119.76,15.749
118.632,15.469
117.456,15.188
116.244,14.906
114.972,14.623
113.664,14.338
112.308,14.052
110.904,13.764
109.464,13.475
107.976,13.185
106.452,12.894
104.88,12.601
103.284,12.307
101.652,12.012
99.996,11.714
98.316,11.415
96.612,11.115
94.884,10.812
93.144,10.507
91.392,10.2
89.628,9.89
87.864,9.578
86.1,9.264
84.348,8.946
82.596,8.625
80.868,8.301
79.152,7.973
77.448,7.642
75.78,7.307
74.136,6.967
72.528,6.624
70.956,6.276
69.42,5.923
67.932,5.566
66.48,5.203
65.088,4.836
63.744,4.463
62.448,4.085
61.2,3.702
60.024,3.313
58.896,2.919
57.828,2.52
56.82,2.114
55.872,1.704
54.984,1.288
54.168,0.866
53.4,0.44
52.692,0.008
52.044,-0.429
51.456,-0.871
50.916,-1.318
50.436,-1.769
50.016,-2.225
49.644,-2.684
49.32,-3.148
49.044,-3.615
48.816,-4.086
48.636,-4.56
48.492,-5.036
48.396,-5.515
48.324,-5.997
48.3,-6.48
48.3,-6.965
48.336,-7.451
48.396,-7.938
48.48,-8.426
48.588,-8.915
48.732,-9.403
48.888,-9.892
49.056,-10.38
49.248,-10.868
49.464,-11.355
49.68,-11.841
49.92,-12.326
50.172,-12.809
50.436,-13.291
50.7,-13.771
50.988,-14.25
51.276,-14.726
51.588,-15.201
51.9,-15.674
52.212,-16.144
52.548,-16.613
52.884,-17.079
53.232,-17.543
53.592,-18.006
53.964,-18.466
54.336,-18.924
54.732,-19.381
55.128,-19.835
55.536,-20.288
55.956,-20.74
56.388,-21.19
56.832,-21.638
57.3,-22.086
57.768,-22.532
58.248,-22.977
58.752,-23.422
59.256,-23.865
59.784,-24.309
60.324,-24.751
60.864,-25.193
61.428,-25.635
62.004,-26.077
62.604,-26.518
63.204,-26.96
63.816,-27.401
64.44,-27.843
65.076,-28.284
65.712,-28.725
66.36,-29.167
67.02,-29.608
67.692,-30.05
68.364,-30.491
69.036,-30.932
69.708,-31.372
70.38,-31.813
71.064,-32.252
71.736,-32.691
72.408,-33.13
73.068,-33.567
73.716,-34.003
74.364,-34.438
75,-34.872
75.612,-35.303
76.212,-35.733
76.8,-36.161
77.364,-36.586
77.904,-37.009
78.408,-37.429
78.9,-37.847
79.356,-38.261
79.788,-38.672
80.184,-39.079
80.544,-39.483
80.856,-39.883
81.144,-40.279
81.384,-40.671
81.588,-41.058
81.744,-41.441
81.864,-41.82
81.924,-42.194
81.948,-42.563
81.924,-42.928
81.852,-43.287
81.72,-43.642
81.552,-43.992
81.336,-44.337
81.072,-44.677
80.748,-45.012
80.388,-45.343
79.98,-45.669
79.536,-45.99
79.032,-46.307
78.492,-46.619
77.916,-46.926
77.292,-47.23
76.644,-47.529
75.948,-47.825
75.228,-48.116
74.484,-48.404
73.704,-48.688
72.9,-48.969
72.084,-49.247
71.244,-49.521
70.392,-49.793
69.528,-50.062
68.652,-50.328
67.776,-50.592
66.9,-50.854
66.024,-51.113
65.16,-51.371
64.296,-51.627
63.456,-51.881
62.628,-52.133
61.812,-52.384
61.032,-52.634
60.264,-52.883
59.532,-53.13
58.836,-53.377
58.164,-53.622
57.54,-53.867
56.94,-54.111
56.388,-54.354
55.884,-54.596
55.416,-54.838
54.984,-55.08
54.612,-55.321
54.276,-55.561
53.988,-55.801
53.748,-56.041
53.556,-56.28
53.412,-56.519
53.316,-56.757
53.256,-56.995
53.244,-57.233
53.28,-57.47
53.352,-57.707
53.472,-57.944
53.616,-58.181
53.808,-58.417
54.024,-58.653
54.264,-58.888
54.552,-59.124
54.852,-59.359
55.176,-59.594
55.524,-59.83
55.884,-60.065
56.256,-60.3
56.64,-60.535
57.036,-60.77
57.432,-61.005
57.828,-61.241
58.224,-61.477
58.608,-61.713
58.992,-61.95
59.364,-62.188
59.724,-62.426
60.06,-62.666
60.384,-62.906
60.684,-63.148
60.96,-63.391
61.2,-63.635
61.428,-63.881
61.608,-64.129
61.764,-64.379
61.896,-64.631
61.98,-64.885
62.028,-65.142
62.04,-65.402
62.016,-65.664
61.956,-65.929
61.86,-66.196
61.716,-66.468
61.536,-66.742
61.32,-67.02
61.056,-67.301
60.756,-67.586
60.42,-67.874
60.048,-68.166
59.64,-68.461
59.196,-68.761
58.716,-69.064
58.212,-69.371
57.672,-69.681
57.096,-69.995
56.496,-70.313
55.872,-70.634
55.224,-70.958
54.552,-71.286
53.868,-71.617
53.148,-71.951
52.428,-72.288
51.684,-72.627
50.928,-72.969
50.16,-73.314
49.392,-73.661
48.6,-74.01
47.82,-74.361
47.028,-74.713
46.224,-75.068
45.432,-75.424
44.628,-75.782
43.836,-76.141
43.044,-76.502
42.252,-76.864
41.46,-77.228
40.68,-77.593
39.9,-77.959
39.12,-78.328
38.352,-78.698
37.596,-79.07
36.84,-79.445
36.096,-79.822
35.352,-80.202
34.608,-80.585
33.876,-80.972
33.144,-81.363
32.424,-81.758
31.704,-82.158
30.984,-82.563
30.276,-82.974
29.568,-83.392
28.848,-83.817
28.14,-84.249
27.432,-84.689
26.724,-85.138
26.004,-85.596
25.284,-86.064
24.564,-86.541
23.844,-87.029
23.112,-87.528
22.38,-88.038
21.636,-88.56
20.88,-89.093
20.124,-89.638
19.356,-90.194
18.588,-90.762
17.796,-91.341
17.004,-91.932
16.2,-92.532
15.384,-93.143
14.556,-93.762
13.728,-94.39
12.876,-95.024
12.012,-95.665
11.136,-96.309
10.26,-96.957
9.36,-97.606
8.448,-98.253
7.524,-98.898
6.588,-99.538
5.652,-100.17
4.692,-100.791
3.72,-101.4
2.736,-101.992
1.74,-102.565
0.732,-103.116
-0.288,-103.641
-1.32,-104.137
-2.364,-104.6
-3.42,-105.027
-4.476,-105.413
-5.556,-105.755
-6.636,-106.049
-7.728,-106.291
-8.832,-106.477
-9.936,-106.603
-11.052,-106.666
-12.168,-106.66
-13.296,-106.584
-14.436,-106.432
-15.576,-106.201
-16.716,-105.888
-17.856,-105.49
-19.008,-105.002
-20.16,-104.424
-21.312,-103.75
-22.464,-102.98
-23.604,-102.11
-24.756,-101.139
-25.896,-100.066
-27.048,-98.888
-28.176,-97.604
-29.304,-96.215
-30.432,-94.719
-31.548,-93.117
-32.664,-91.408
-33.756,-89.594
-34.848,-87.676
-35.916,-85.655
-36.984,-83.532
-38.04,-81.311
-39.072,-78.993
-40.092,-76.582
-41.088,-74.081
-42.084,-71.494
-43.044,-68.824
-43.992,-66.077
-44.916,-63.255
-45.828,-60.366
-46.704,-57.413
-47.568,-54.403
-48.396,-51.34
-49.212,-48.231
-49.992,-45.082
-50.748,-41.899
-51.48,-38.689
-52.188,-35.457
-52.86,-32.211
-53.508,-28.957
-54.12,-25.702
-54.708,-22.451
-55.26,-19.212
-55.776,-15.991
-56.28,-12.794
-56.736,-9.627
-57.168,-6.497
-57.564,-3.409
-57.936,-0.368
-58.272,2.62
-58.584,5.549
-58.86,8.416
-59.112,11.216
-59.328,13.944
-59.52,16.597
-59.676,19.171
-59.82,21.664
-59.928,24.072
-60,26.394
-60.06,28.627
-60.096,30.769
-60.108,32.82
-60.096,34.779
-60.06,36.645
-60,38.418
-59.928,40.098
-59.832,41.687
-59.736,43.184
-59.604,44.592
-59.472,45.912
-59.316,47.145
-59.16,48.295
-58.992,49.362
-58.8,50.35
-58.62,51.262
-58.428,52.1
-58.224,52.868
-58.02,53.569
-57.816,54.207
-57.612,54.784
-57.408,55.304
-57.204,55.772
-57,56.19
-56.808,56.563
-56.628,56.893
-56.448,57.184
-56.28,57.441
-56.112,57.666
-55.968,57.862
-55.836,58.034
-55.716,58.184
-55.62,58.314
-55.536,58.429
-55.476,58.53
-55.44,58.621
-55.416,58.703
-55.428,58.78
-55.464,58.852
-55.524,58.922
-55.62,58.991
-55.752,59.062
-55.908,59.135
-56.1,59.212
-56.34,59.294
-56.616,59.381
-56.928,59.474
-57.288,59.574
-57.684,59.682
-58.14,59.796
-58.644,59.919
-59.196,60.049
-59.796,60.186
-60.456,60.331
-61.176,60.482
-61.956,60.64
-62.796,60.804
-63.696,60.974
-64.668,61.149
-65.7,61.328
-66.804,61.51
-67.98,61.695
-69.228,61.883
-70.548,62.071
-71.94,62.261
-73.404,62.45
-74.952,62.638
-76.572,62.824
-78.276,63.008
-80.052,63.189
-81.912,63.365
-83.856,63.537
-85.884,63.705
-87.984,63.866
-90.156,64.021
-92.424,64.169
-94.764,64.31
-97.176,64.443
-99.672,64.569
-102.24,64.686
-104.88,64.794
-107.592,64.894
-110.376,64.984
-113.22,65.066
-116.136,65.138
-119.112,65.201
-122.148,65.255
-125.232,65.3
-128.364,65.336
-131.544,65.362
-134.76,65.38
-138.012,65.39
-141.3,65.391
-144.612,65.384
-147.948,65.369
-151.284,65.346
-154.644,65.316
-158.004,65.28
-161.352,65.237
-164.7,65.187
-168.024,65.132
-171.324,65.072
-174.588,65.007
-177.828,64.937
-181.008,64.862
-184.152,64.784
-187.224,64.703
-190.236,64.619
-193.176,64.531
-196.044,64.442
-198.816,64.351
-201.504,64.258
-204.096,64.164
-206.592,64.069
-208.968,63.973
-211.236,63.877
-213.384,63.781
-215.412,63.685
-217.308,63.589
-219.072,63.493
-220.704,63.398
-222.204,63.303
-223.56,63.209
-224.76,63.115
-225.828,63.023
-226.752,62.93
-227.52,62.838
-228.132,62.746
-228.612,62.654
-228.936,62.562
-229.104,62.47
-229.128,62.377
-229.008,62.283
-228.744,62.187
-228.336,62.09
-227.796,61.99
-227.112,61.888
-226.284,61.782
-225.336,61.673
-224.244,61.56
-223.044,61.441
-221.712,61.318
-220.26,61.188
-218.7,61.052
-217.032,60.908
-215.256,60.757
-213.372,60.597
-211.404,60.428
-209.34,60.25
-207.192,60.061
-204.948,59.862
-202.632,59.651
-200.244,59.428
-197.784,59.193
-195.252,58.945
-192.66,58.684
-190.02,58.408
-187.308,58.119
-184.548,57.815
-181.752,57.496
-178.896,57.162
-176.004,56.813
-173.064,56.449
-170.088,56.068
-167.076,55.673
-164.04,55.261
-160.956,54.834
-157.848,54.391
-154.716,53.933
-151.548,53.46
-148.356,52.972
-145.128,52.469
-141.888,51.952
-138.612,51.422
-135.312,50.877
-131.988,50.32
-128.64,49.75
-125.268,49.169
-121.86,48.576
-118.44,47.973
-114.984,47.36
-111.504,46.737
-108,46.107
-104.472,45.468
-100.92,44.823
-97.344,44.172
-93.744,43.515
-90.12,42.854
-86.472,42.19
-82.8,41.523
-79.104,40.854
-75.396,40.184
-71.676,39.515
-67.932,38.846
-64.188,38.178
-60.432,37.513
-56.664,36.852
-52.908,36.194
-49.14,35.542
-45.396,34.896
-41.652,34.255
-37.92,33.623
-34.212,32.998
-30.54,32.382
-26.892,31.776
-23.28,31.179
-19.716,30.594
-16.2,30.02
-12.744,29.457
-9.36,28.908
-6.024,28.371
-2.784,27.848
0.384,27.339
3.468,26.844
6.456,26.364
9.336,25.9
12.108,25.451
14.784,25.019
17.328,24.602
19.752,24.202
22.056,23.819
24.228,23.453
26.268,23.105
28.164,22.773
29.928,22.459
31.536,22.163
33.012,21.885
34.344,21.624
35.532,21.381
36.576,21.155
37.476,20.948
38.244,20.758
38.856,20.585
39.348,20.43
39.708,20.292
39.936,20.171
40.032,20.066
40.02,19.979
39.9,19.907
39.684,19.852
39.36,19.812
38.952,19.788
38.46,19.778
37.896,19.783
37.272,19.802
36.588,19.834
35.868,19.88
35.112,19.938
34.32,20.008
33.528,20.09
32.724,20.182
31.92,20.286
31.128,20.399
30.372,20.521
29.64,20.651
28.956,20.79
28.308,20.936
27.732,21.089
27.216,21.248
26.784,21.413
26.424,21.583
26.148,21.757
25.968,21.934
25.884,22.115
25.908,22.298
26.028,22.484
26.268,22.67
26.604,22.858
27.048,23.047
27.612,23.235
28.284,23.423
29.064,23.61
29.964,23.795
30.948,23.979
32.04,24.161
33.24,24.341
34.524,24.518
35.892,24.692
37.344,24.864
38.868,25.032
40.464,25.196
42.108,25.357
43.812,25.515
45.552,25.668
47.34,25.818
49.14,25.964
50.964,26.107
52.788,26.245
54.624,26.379
56.436,26.51
58.236,26.637
60.012,26.761
61.74,26.881
63.432,26.997
65.064,27.11
66.648,27.22
68.148,27.327
69.588,27.431
70.944,27.532
72.216,27.631
73.404,27.727
74.484,27.82
75.48,27.911
76.368,28
77.16,28.087
77.844,28.172
78.432,28.255
78.9,28.336
79.272,28.416
79.536,28.493
79.704,28.569
79.764,28.644
79.728,28.716
79.608,28.788
79.38,28.857
79.068,28.925
78.684,28.992
78.204,29.056
77.652,29.119
77.028,29.18
76.344,29.239
75.588,29.296
74.784,29.351
73.92,29.404
73.008,29.454
72.048,29.502
71.04,29.548
70.008,29.59
68.94,29.63
67.836,29.666
66.696,29.7
65.544,29.73
64.356,29.757
63.156,29.78
61.92,29.799
60.672,29.814
59.412,29.825
58.128,29.832
56.82,29.834
55.5,29.832
54.156,29.825
52.8,29.813
51.42,29.797
50.016,29.775
48.6,29.748
47.16,29.716
45.696,29.679
44.208,29.636
42.696,29.588
41.16,29.535
39.612,29.476
38.04,29.411
36.444,29.341
34.824,29.265
33.192,29.184
31.548,29.098
29.892,29.006
28.224,28.908
26.544,28.805
24.876,28.697
23.196,28.584
21.528,28.466
19.884,28.343
18.24,28.215
16.632,28.082
15.06,27.944
13.524,27.803
12.024,27.657
10.584,27.507
9.204,27.353
7.896,27.195
6.66,27.034
5.496,26.87
4.428,26.702
3.468,26.532
2.592,26.359
1.836,26.183
1.2,26.005
0.684,25.825
0.288,25.643
0.024,25.46
-0.108,25.275
-0.096,25.089
0.048,24.901
0.336,24.713
0.768,24.525
1.344,24.335
2.052,24.146
2.904,23.956
3.9,23.766
5.016,23.576
6.264,23.387
7.632,23.198
9.12,23.009
10.716,22.821
12.408,22.633
14.196,22.447
16.068,22.26
18.012,22.075
20.016,21.89
22.08,21.706
24.192,21.523
26.328,21.34
28.476,21.158
30.648,20.977
32.808,20.796
34.956,20.616
37.08,20.435
39.156,20.255
41.196,20.075
43.176,19.895
45.084,19.715
46.908,19.534
48.66,19.353
50.316,19.17
51.864,18.987
53.304,18.803
54.624,18.617
55.836,18.43
56.928,18.24
57.888,18.049
58.728,17.856
59.436,17.66
60.024,17.461
60.48,17.26
60.816,17.056
61.032,16.848
61.14,16.636
61.128,16.422
61.02,16.203
60.816,15.98
60.516,15.753
60.144,15.521
59.7,15.285
59.196,15.045
58.644,14.799
58.044,14.549
57.432,14.294
56.796,14.034
56.16,13.768
55.536,13.497
54.924,13.222
54.348,12.94
53.82,12.654
53.34,12.362
52.932,12.065
52.596,11.763
52.356,11.456
52.2,11.143
52.152,10.826
52.212,10.503
52.404,10.176
52.716,9.844
53.148,9.507
53.724,9.165
54.432,8.82
55.284,8.47
56.28,8.116
57.408,7.758
58.68,7.396
60.096,7.03
61.632,6.662
63.3,6.29
65.1,5.915
67.008,5.537
69.036,5.156
71.16,4.773
73.38,4.388
75.684,4.001
78.072,3.612
80.508,3.221
83.004,2.829
85.536,2.436
88.104,2.041
90.684,1.646
93.264,1.25
95.832,0.853
98.388,0.457
100.908,0.06
103.38,-0.338
105.804,-0.734
108.156,-1.131
110.424,-1.527
112.608,-1.923
114.696,-2.318
116.676,-2.712
118.548,-3.105
120.288,-3.497
121.896,-3.887
123.384,-4.277
124.716,-4.665
125.916,-5.052
126.972,-5.438
127.872,-5.822
128.628,-6.204
129.24,-6.585
129.696,-6.964
130.02,-7.342
130.2,-7.718
130.236,-8.093
130.14,-8.466
129.924,-8.837
129.576,-9.207
129.12,-9.576
128.556,-9.942
127.896,-10.308
127.14,-10.672
126.3,-11.035
125.388,-11.397
124.416,-11.758
123.396,-12.117
122.328,-12.476
121.212,-12.833
120.084,-13.19
118.944,-13.546
117.792,-13.901
116.64,-14.256
115.5,-14.61
114.384,-14.964
113.292,-15.317
112.236,-15.67
111.216,-16.022
110.256,-16.374
109.332,-16.726
108.48,-17.078
107.676,-17.43
106.944,-17.781
106.272,-18.132
105.672,-18.483
105.144,-18.833
104.688,-19.184
104.304,-19.534
103.992,-19.883
103.74,-20.232
103.56,-20.581
103.44,-20.929
103.38,-21.277
103.38,-21.623
103.428,-21.969
103.524,-22.314
103.668,-22.657
103.848,-23
104.064,-23.341
104.304,-23.68
104.568,-24.018
104.844,-24.354
105.144,-24.689
105.444,-25.021
105.744,-25.352
106.032,-25.68
106.32,-26.005
106.596,-26.329
106.848,-26.649
107.076,-26.968
107.292,-27.283
107.472,-27.596
107.628,-27.906
107.736,-28.213
107.82,-28.517
107.868,-28.818
107.88,-29.117
107.856,-29.412
107.796,-29.705
107.7,-29.994
107.568,-30.281
107.412,-30.565
107.208,-30.847
106.992,-31.125
106.74,-31.401
106.464,-31.675
106.164,-31.946
105.852,-32.215
105.516,-32.481
105.18,-32.745
104.832,-33.008
104.472,-33.268
104.112,-33.526
103.764,-33.783
103.416,-34.037
103.068,-34.29
102.744,-34.541
102.42,-34.791
102.12,-35.039
101.832,-35.286
101.568,-35.531
101.328,-35.774
101.112,-36.016
100.92,-36.256
100.74,-36.494
100.596,-36.731
100.464,-36.966
100.368,-37.199
100.284,-37.43
100.224,-37.659
100.176,-37.885
100.152,-38.109
100.14,-38.331
100.14,-38.549
100.152,-38.765
100.164,-38.978
100.188,-39.187
100.212,-39.393
100.224,-39.596
100.236,-39.794
100.236,-39.989
100.212,-40.179
100.188,-40.366
100.128,-40.547
100.056,-40.724
99.948,-40.896
99.816,-41.063
99.648,-41.226
99.444,-41.383
99.204,-41.534
98.916,-41.681
98.592,-41.822
98.232,-41.957
97.824,-42.088
97.368,-42.213
96.864,-42.332
96.324,-42.446
95.724,-42.555
95.1,-42.659
94.416,-42.758
93.696,-42.852
92.94,-42.942
92.136,-43.027
91.296,-43.108
90.432,-43.185
89.52,-43.258
88.584,-43.328
87.624,-43.394
86.64,-43.458
85.632,-43.519
84.6,-43.578
83.568,-43.636
82.512,-43.691
81.444,-43.746
80.364,-43.801
79.296,-43.855
78.216,-43.909
77.136,-43.963
76.056,-44.019
74.976,-44.076
73.92,-44.135
72.852,-44.197
71.808,-44.26
70.764,-44.327
69.732,-44.398
68.7,-44.472
67.692,-44.55
66.684,-44.633
65.7,-44.721
64.716,-44.815
63.732,-44.914
62.772,-45.019
61.8,-45.13
60.84,-45.248
59.88,-45.373
58.932,-45.505
57.96,-45.644
57,-45.791
56.028,-45.946
55.056,-46.109
54.06,-46.281
53.052,-46.46
52.032,-46.649
51,-46.845
49.944,-47.051
48.864,-47.266
47.772,-47.489
46.644,-47.721
45.492,-47.962
44.316,-48.212
43.104,-48.471
41.868,-48.738
40.596,-49.014
39.3,-49.299
37.98,-49.592
36.624,-49.894
35.244,-50.203
33.828,-50.52
32.388,-50.845
30.924,-51.177
29.424,-51.516
27.912,-51.862
26.376,-52.215
24.828,-52.573
23.256,-52.937
21.672,-53.306
20.076,-53.68
18.468,-54.058
16.86,-54.441
15.252,-54.826
13.632,-55.215
12.024,-55.607
10.416,-56
8.82,-56.395
7.224,-56.791
5.652,-57.188
4.092,-57.584
2.556,-57.981
1.032,-58.376
-0.468,-58.77
-1.944,-59.163
-3.396,-59.553
-4.812,-59.941
-6.204,-60.326
-7.572,-60.708
-8.904,-61.086
-10.212,-61.461
-11.496,-61.832
-12.744,-62.199
-13.956,-62.562
-15.144,-62.92
-16.308,-63.275
-17.436,-63.626
-18.54,-63.973
-19.632,-64.316
-20.688,-64.656
-21.732,-64.992
-22.752,-65.326
-23.76,-65.658
-24.744,-65.988
-25.716,-66.316
-26.688,-66.644
-27.648,-66.972
-28.596,-67.3
-29.544,-67.63
-30.48,-67.962
-31.428,-68.297
-32.364,-68.636
-33.312,-68.979
-34.26,-69.328
-35.22,-69.683
-36.18,-70.045
-37.14,-70.415
-38.124,-70.793
-39.096,-71.182
-40.092,-71.58
-41.088,-71.989
-42.096,-72.41
-43.116,-72.843
-44.136,-73.288
-45.156,-73.746
-46.188,-74.217
-47.22,-74.701
-48.252,-75.198
-49.296,-75.708
-50.328,-76.23
-51.36,-76.765
-52.38,-77.312
-53.4,-77.869
-54.408,-78.437
-55.416,-79.013
-56.4,-79.597
-57.372,-80.187
-58.32,-80.782
-59.256,-81.379
-60.18,-81.977
-61.08,-82.573
-61.944,-83.165
-62.796,-83.75
-63.624,-84.327
-64.428,-84.891
-65.196,-85.439
-65.94,-85.97
-66.66,-86.478
-67.356,-86.961
-68.016,-87.416
-68.652,-87.838
-69.264,-88.223
-69.852,-88.569
-70.416,-88.871
-70.944,-89.125
-71.46,-89.327
-71.952,-89.474
-72.42,-89.562
-72.876,-89.587
-73.308,-89.545
-73.716,-89.433
-74.124,-89.248
-74.508,-88.985
-74.88,-88.642
-75.24,-88.217
-75.588,-87.706
-75.936,-87.107
-76.272,-86.417
-76.596,-85.636
-76.92,-84.76
-77.232,-83.79
-77.556,-82.723
-77.856,-81.559
-78.168,-80.298
-78.468,-78.94
-78.78,-77.485
-79.08,-75.934
-79.368,-74.289
-79.668,-72.55
-79.956,-70.719
-80.244,-68.799
-80.532,-66.793
-80.82,-64.703
-81.096,-62.532
-81.372,-60.285
-81.648,-57.965
-81.912,-55.577
-82.164,-53.125
-82.416,-50.614
-82.668,-48.049
-82.908,-45.435
-83.136,-42.778
-83.364,-40.084
-83.592,-37.358
-83.808,-34.606
-84.024,-31.834
-84.228,-29.049
-84.444,-26.256
-84.648,-23.462
-84.852,-20.673
-85.056,-17.894
-85.272,-15.131
-85.488,-12.391
-85.716,-9.679
-85.956,-7
-86.208,-4.36
-86.484,-1.763
-86.772,0.785
-87.084,3.28
-87.432,5.718
-87.804,8.095
-88.212,10.407
-88.656,12.651
-89.136,14.825
-89.664,16.925
-90.24,18.949
-90.876,20.896
-91.56,22.765
-92.304,24.553
-93.12,26.26
-93.984,27.886
-94.932,29.432
-95.94,30.896
-97.02,32.28
-98.172,33.584
-99.408,34.811
-100.716,35.961
-102.096,37.037
-103.56,38.04
-105.096,38.972
-106.716,39.837
-108.408,40.636
-110.172,41.373
-112.008,42.051
-113.928,42.672
-115.896,43.241
-117.948,43.759
-120.048,44.231
-122.22,44.661
-124.44,45.05
-126.708,45.403
-129.024,45.723
-131.388,46.014
-133.776,46.278
-136.212,46.518
-138.66,46.738
-141.132,46.941
-143.628,47.13
-146.136,47.306
-148.644,47.473
-151.152,47.633
-153.66,47.788
-156.156,47.94
-158.628,48.091
-161.1,48.243
-163.536,48.397
-165.948,48.554
-168.324,48.716
-170.664,48.883
-172.98,49.056
-175.236,49.237
-177.456,49.424
-179.628,49.62
-181.752,49.823
-183.828,50.033
-185.844,50.251
-187.812,50.476
-189.72,50.708
-191.568,50.946
-193.368,51.19
-195.108,51.439
-196.788,51.691
-198.42,51.948
-199.992,52.206
-201.516,52.466
-202.98,52.726
-204.384,52.986
-205.752,53.244
-207.048,53.5
-208.308,53.752
-209.52,54
-210.672,54.242
-211.788,54.477
-212.844,54.705
-213.864,54.925
-214.836,55.136
-215.76,55.337
-216.636,55.527
-217.476,55.707
-218.268,55.875
-219.012,56.03
-219.708,56.174
-220.368,56.304
-220.968,56.421
-221.532,56.526
-222.036,56.617
-222.504,56.694
-222.912,56.759
-223.26,56.81
-223.56,56.849
-223.8,56.875
-223.98,56.889
-224.088,56.89
-224.148,56.881
-224.124,56.86
-224.04,56.829
-223.884,56.789
-223.656,56.739
-223.344,56.681
-222.948,56.615
-222.48,56.542
-221.916,56.462
-221.28,56.377
-220.548,56.287
-219.72,56.192
-218.808,56.094
-217.788,55.994
-216.684,55.891
-215.484,55.787
-214.176,55.682
-212.784,55.577
-211.284,55.472
-209.688,55.369
-207.996,55.267
-206.196,55.167
-204.312,55.069
-202.332,54.974
-200.244,54.883
-198.072,54.795
-195.816,54.71
-193.464,54.63
-191.028,54.553
-188.508,54.48
-185.904,54.412
-183.228,54.347
-180.48,54.286
-177.66,54.229
-174.768,54.175
-171.816,54.124
-168.816,54.076
-165.756,54.031
-162.648,53.988
-159.492,53.946
-156.3,53.905
-153.072,53.865
-149.808,53.824
-146.52,53.783
-143.208,53.741
-139.884,53.696
-136.536,53.648
-133.188,53.597
-129.828,53.541
-126.48,53.481
-123.12,53.414
-119.772,53.341
-116.436,53.26
-113.112,53.171
-109.8,53.073
-106.512,52.965
-103.248,52.847
-100.008,52.717
-96.792,52.576
-93.6,52.422
-90.456,52.255
-87.324,52.074
-84.24,51.879
-81.18,51.669
-78.168,51.444
-75.192,51.204
-72.24,50.947
-69.336,50.674
-66.468,50.384
-63.636,50.078
-60.84,49.755
-58.08,49.414
-55.356,49.057
-52.656,48.683
-50.004,48.292
-47.376,47.885
-44.772,47.46
-42.216,47.02
-39.672,46.564
-37.152,46.092
-34.668,45.606
-32.208,45.105
-29.76,44.589
-27.336,44.06
-24.924,43.519
-22.536,42.965
-20.148,42.399
-17.796,41.823
-15.444,41.237
-13.104,40.641
-10.776,40.037
-8.448,39.425
-6.144,38.806
-3.84,38.182
-1.548,37.552
0.744,36.918
3.024,36.281
5.292,35.641
7.548,34.999
9.792,34.357
12.024,33.714
14.244,33.073
16.452,32.433
18.636,31.797
20.808,31.163
22.956,30.534
25.068,29.909
27.168,29.291
29.232,28.679
31.272,28.074
33.264,27.477
35.22,26.888
37.14,26.309
39,25.739
40.824,25.179
42.6,24.631
44.316,24.094
45.96,23.568
47.556,23.055
49.092,22.554
50.556,22.067
51.948,21.593
53.268,21.133
54.516,20.687
55.692,20.255
56.784,19.837
57.792,19.434
58.728,19.046
59.592,18.674
60.36,18.316
61.056,17.973
61.68,17.646
62.208,17.334
62.676,17.037
63.06,16.755
63.372,16.488
63.612,16.236
63.78,15.999
63.888,15.777
63.936,15.569
63.924,15.376
63.852,15.196
63.732,15.031
63.576,14.879
63.372,14.74
63.144,14.615
62.88,14.502
62.592,14.401
62.292,14.312
61.968,14.235
61.644,14.169
61.32,14.114
60.996,14.069
60.684,14.034
60.384,14.009
60.096,13.993
59.844,13.986
59.616,13.986
59.424,13.995
59.268,14.011
59.148,14.035
59.076,14.064
59.052,14.1
59.076,14.142
59.148,14.189
59.268,14.241
59.448,14.298
59.676,14.359
59.964,14.424
60.288,14.492
60.672,14.563
61.104,14.638
61.584,14.714
62.112,14.793
62.676,14.875
63.264,14.957
63.9,15.042
64.548,15.127
65.232,15.214
65.916,15.301
66.612,15.389
67.32,15.478
68.016,15.567
68.712,15.656
69.372,15.746
70.02,15.835
70.632,15.924
71.208,16.014
71.736,16.103
72.216,16.191
72.624,16.28
72.972,16.368
73.236,16.456
73.428,16.543
73.524,16.631
73.536,16.717
73.44,16.804
73.248,16.89
72.948,16.975
72.54,17.061
72.012,17.146
71.364,17.23
70.608,17.315
69.72,17.399
68.724,17.483
67.596,17.566
66.36,17.65
65.004,17.733
63.528,17.816
61.944,17.898
60.252,17.981
58.452,18.063
56.556,18.144
54.564,18.226
52.488,18.307
50.328,18.388
48.108,18.468
45.816,18.548
43.464,18.628
41.076,18.706
38.64,18.785
36.192,18.863
33.72,18.94
31.236,19.016
28.752,19.092
26.292,19.167
23.856,19.241
21.444,19.314
19.08,19.386
16.776,19.457
14.532,19.527
12.372,19.596
10.284,19.664
8.292,19.73
6.396,19.796
4.608,19.86
2.94,19.922
1.392,19.984
-0.024,20.044
-1.32,20.103
-2.46,20.16
-3.468,20.216
-4.332,20.27
-5.04,20.323
-5.604,20.374
-6.012,20.424
-6.276,20.472
-6.384,20.518
-6.348,20.563
-6.156,20.606
-5.832,20.648
-5.364,20.688
-4.752,20.726
-4.02,20.762
-3.156,20.796
-2.184,20.828
-1.092,20.858
0.108,20.886
1.404,20.912
2.784,20.936
4.26,20.957
5.796,20.975
7.392,20.991
9.048,21.004
10.752,21.014
12.492,21.021
14.256,21.025
16.032,21.026
17.832,21.023
19.62,21.017
21.396,21.007
23.16,20.992
24.9,20.974
26.616,20.951
28.284,20.924
29.904,20.893
31.476,20.856
32.976,20.815
34.428,20.768
35.808,20.717
37.116,20.66
38.352,20.598
39.516,20.53
40.596,20.457
41.592,20.378
42.504,20.294
43.344,20.204
44.1,20.108
44.784,20.006
45.384,19.899
45.912,19.786
46.368,19.667
46.752,19.542
47.076,19.412
47.34,19.277
47.556,19.136
47.712,18.991
47.832,18.84
47.916,18.684
47.964,18.523
47.988,18.358
47.988,18.189
47.976,18.016
47.964,17.838
47.952,17.657
47.94,17.472
47.94,17.284
47.964,17.093
48.012,16.9
48.096,16.703
48.204,16.504
48.372,16.303
48.576,16.1
48.828,15.895
49.14,15.688
49.512,15.48
49.944,15.271
50.448,15.06
51.024,14.848
51.66,14.636
52.38,14.422
53.172,14.208
54.036,13.993
54.984,13.777
56.004,13.561
57.096,13.344
58.272,13.127
59.508,12.909
60.828,12.69
62.22,12.471
63.684,12.251
65.208,12.03
66.804,11.808
68.46,11.585
70.176,11.361
71.94,11.136
73.764,10.909
75.636,10.681
77.544,10.452
79.5,10.22
81.492,9.987
83.52,9.752
85.584,9.515
87.66,9.276
89.772,9.034
91.896,8.79
94.032,8.544
96.18,8.295
98.328,8.043
100.488,7.789
102.648,7.532
104.796,7.273
106.944,7.011
109.08,6.746
111.204,6.478
113.316,6.208
115.404,5.936
117.468,5.661
119.496,5.383
121.512,5.104
123.492,4.822
125.436,4.538
127.356,4.253
129.228,3.966
131.064,3.678
132.852,3.388
134.604,3.097
136.308,2.806
137.964,2.514
139.56,2.221
141.108,1.929
142.608,1.636
144.048,1.344
145.428,1.053
146.748,0.762
148.008,0.472
149.196,0.183
150.324,-0.105
151.392,-0.39
152.376,-0.674
153.3,-0.957
154.14,-1.237
154.92,-1.515
155.616,-1.79
156.228,-2.063
156.78,-2.334
157.236,-2.602
157.62,-2.867
157.908,-3.13
158.124,-3.389
158.256,-3.646
158.304,-3.9
158.268,-4.152
158.148,-4.4
157.944,-4.646
157.644,-4.889
157.272,-5.13
156.816,-5.368
156.264,-5.603
155.64,-5.836
154.932,-6.067
154.14,-6.296
153.276,-6.522
152.34,-6.747
151.32,-6.969
150.228,-7.19
149.076,-7.409
147.852,-7.627
146.568,-7.843
145.212,-8.057
143.808,-8.27
142.344,-8.482
140.844,-8.693
139.284,-8.903
137.688,-9.111
136.056,-9.319
134.388,-9.525
132.684,-9.731
130.968,-9.935
129.216,-10.139
127.464,-10.342
125.7,-10.544
123.924,-10.744
122.148,-10.944
120.384,-11.144
118.62,-11.342
116.88,-11.539
115.152,-11.735
113.436,-11.93
111.768,-12.124
110.112,-12.317
108.504,-12.509
106.944,-12.7
105.42,-12.889
103.944,-13.078
102.528,-13.265
101.16,-13.451
99.852,-13.636
98.616,-13.82
97.44,-14.003
96.336,-14.184
95.304,-14.365
94.344,-14.544
93.456,-14.722
92.652,-14.9
91.932,-15.076
91.284,-15.251
90.72,-15.426
90.24,-15.599
89.844,-15.772
89.52,-15.944
89.292,-16.115
89.136,-16.286
89.076,-16.455
89.088,-16.624
89.172,-16.793
89.34,-16.961
89.58,-17.128
89.904,-17.295
90.288,-17.461
90.744,-17.626
91.26,-17.791
91.836,-17.955
92.472,-18.118
93.168,-18.281
93.912,-18.442
94.704,-18.603
95.532,-18.763
96.408,-18.922
97.308,-19.079
98.244,-19.236
99.204,-19.391
100.176,-19.544
101.172,-19.696
102.18,-19.846
103.188,-19.994
104.196,-20.141
105.204,-20.285
106.2,-20.427
107.184,-20.567
108.156,-20.704
109.104,-20.839
110.016,-20.971
110.904,-21.101
111.768,-21.227
112.584,-21.351
113.364,-21.472
114.096,-21.59
114.78,-21.704
115.416,-21.816
116.004,-21.925
116.544,-22.03
117.012,-22.133
117.432,-22.232
117.792,-22.329
118.104,-22.423
118.344,-22.513
118.524,-22.602
118.656,-22.687
118.716,-22.77
118.728,-22.851
118.668,-22.93
118.572,-23.007
118.404,-23.082
118.2,-23.155
117.936,-23.228
117.624,-23.299
117.276,-23.369
116.88,-23.438
116.436,-23.507
115.968,-23.576
115.464,-23.645
114.936,-23.714
114.372,-23.784
113.784,-23.854
113.184,-23.926
112.56,-23.999
111.924,-24.073
111.276,-24.149
110.628,-24.228
109.968,-24.308
109.308,-24.391
108.636,-24.477
107.976,-24.566
107.316,-24.658
106.656,-24.752
106.008,-24.851
105.36,-24.953
104.724,-25.058
104.088,-25.168
103.464,-25.281
102.84,-25.398
102.228,-25.519
101.604,-25.645
100.992,-25.775
100.392,-25.909
99.768,-26.047
99.156,-26.189
98.532,-26.336
97.896,-26.487
97.248,-26.642
96.576,-26.802
95.892,-26.965
95.184,-27.133
94.452,-27.304
93.684,-27.48
92.88,-27.659
92.04,-27.841
91.152,-28.028
90.228,-28.217
89.256,-28.41
88.224,-28.606
87.144,-28.805
86.004,-29.006
84.804,-29.211
83.544,-29.417
82.224,-29.626
80.832,-29.836
79.38,-30.048
77.856,-30.262
76.26,-30.477
74.592,-30.693
72.864,-30.91
71.076,-31.128
69.216,-31.346
67.284,-31.564
65.304,-31.782
63.252,-32
61.152,-32.217
58.992,-32.434
56.772,-32.65
54.516,-32.865
52.212,-33.079
49.872,-33.291
47.496,-33.501
45.096,-33.71
42.66,-33.917
40.212,-34.123
37.752,-34.326
35.268,-34.526
32.796,-34.725
30.312,-34.921
27.84,-35.115
25.38,-35.307
22.932,-35.496
20.508,-35.683
18.108,-35.867
15.744,-36.05
13.416,-36.23
11.124,-36.407
8.88,-36.583
6.672,-36.757
4.524,-36.929
2.424,-37.099
0.384,-37.268
-1.596,-37.435
-3.516,-37.601
-5.376,-37.766
-7.164,-37.93
-8.892,-38.093
-10.56,-38.256
-12.168,-38.419
-13.704,-38.581
-15.168,-38.744
-16.584,-38.908
-17.928,-39.072
-19.212,-39.237
-20.448,-39.403
-21.612,-39.57
-22.74,-39.739
-23.808,-39.91
-24.828,-40.083
-25.8,-40.259
-26.736,-40.436
-27.636,-40.617
-28.5,-40.801
-29.34,-40.988
-30.144,-41.179
-30.924,-41.373
-31.692,-41.571
-32.436,-41.774
-33.168,-41.981
-33.9,-42.192
-34.62,-42.409
-35.34,-42.631
-36.06,-42.858
-36.78,-43.09
-37.512,-43.329
-38.244,-43.573
-38.988,-43.823
-39.756,-44.08
-40.524,-44.343
-41.316,-44.613
-42.132,-44.89
-42.948,-45.174
-43.8,-45.464
-44.652,-45.762
-45.54,-46.067
-46.44,-46.38
-47.352,-46.699
-48.288,-47.026
-49.236,-47.36
-50.196,-47.702
-51.18,-48.05
-52.176,-48.405
-53.172,-48.766
-54.18,-49.134
-55.2,-49.508
-56.22,-49.887
-57.24,-50.271
-58.26,-50.66
-59.28,-51.053
-60.3,-51.448
-61.308,-51.847
-62.316,-52.247
-63.3,-52.648
-64.284,-53.049
-65.244,-53.449
-66.192,-53.847
-67.116,-54.241
-68.016,-54.63
-68.892,-55.013
-69.756,-55.389
-70.584,-55.756
-71.388,-56.113
-72.168,-56.458
-72.912,-56.789
-73.632,-57.105
-74.316,-57.404
-74.976,-57.684
-75.6,-57.944
-76.188,-58.182
-76.752,-58.395
-77.28,-58.583
-77.772,-58.743
-78.24,-58.874
-78.672,-58.973
-79.08,-59.04
-79.464,-59.073
-79.8,-59.069
-80.124,-59.028
-80.412,-58.948
-80.688,-58.827
-80.928,-58.665
-81.144,-58.46
-81.348,-58.212
-81.528,-57.919
-81.684,-57.58
-81.828,-57.195
-81.96,-56.764
-82.068,-56.286
-82.176,-55.761
-82.272,-55.189
-82.356,-54.57
-82.44,-53.904
-82.524,-53.193
-82.608,-52.436
-82.692,-51.635
-82.776,-50.79
-82.872,-49.902
-82.98,-48.974
-83.1,-48.005
-83.232,-46.999
-83.388,-45.957
-83.568,-44.88
-83.772,-43.77
-84,-42.631
-84.264,-41.463
-84.564,-40.269
-84.9,-39.052
-85.284,-37.814
-85.716,-36.558
-86.184,-35.285
-86.712,-34
-87.3,-32.703
-87.948,-31.398
-88.656,-30.087
-89.436,-28.774
-90.288,-27.459
-91.212,-26.147
-92.208,-24.838
-93.288,-23.536
-94.452,-22.243
-95.712,-20.96
-97.044,-19.691
-98.472,-18.436
-100.008,-17.198
-101.628,-15.978
-103.344,-14.778
-105.156,-13.599
-107.076,-12.442
-109.104,-11.309
-111.228,-10.201
-113.448,-9.118
-115.776,-8.061
-118.212,-7.03
-120.744,-6.027
-123.372,-5.051
-126.108,-4.102
-128.94,-3.181
-131.868,-2.288
-134.892,-1.421
-138.012,-0.581
-141.204,0.232
-144.492,1.02
-147.864,1.783
-151.308,2.521
-154.824,3.235
-158.412,3.927
-162.06,4.597
-165.768,5.246
-169.524,5.875
-173.328,6.485
-177.168,7.078
-181.044,7.653
-184.944,8.213
-188.868,8.759
-192.816,9.291
-196.752,9.81
-200.7,10.318
-204.636,10.816
-208.56,11.304
-212.46,11.784
-216.324,12.256
-220.164,12.722
-223.956,13.181
-227.688,13.636
-231.372,14.086
-234.984,14.532
-238.536,14.975
-242.004,15.416
-245.388,15.854
-248.676,16.29
-251.868,16.725
-254.964,17.158
-257.94,17.591
-260.808,18.023
-263.568,18.454
-266.196,18.884
-268.692,19.314
-271.068,19.743
-273.3,20.171
-275.4,20.598
-277.356,21.024
-279.168,21.448
-280.848,21.871
-282.36,22.291
-283.74,22.71
-284.964,23.125
-286.032,23.537
-286.956,23.946
-287.724,24.351
-288.348,24.751
-288.816,25.147
-289.14,25.537
-289.32,25.922
-289.344,26.3
-289.236,26.672
-288.984,27.036
-288.588,27.393
-288.06,27.742
-287.4,28.083
-286.596,28.415
-285.684,28.738
-284.64,29.052
-283.476,29.356
-282.192,29.649
-280.8,29.933
-279.3,30.206
-277.692,30.468
-275.988,30.719
-274.188,30.959
-272.292,31.188
-270.312,31.406
-268.248,31.612
-266.112,31.807
-263.892,31.991
-261.6,32.163
-259.248,32.324
-256.824,32.473
-254.352,32.612
-251.82,32.739
-249.24,32.856
-246.612,32.963
-243.936,33.059
-241.224,33.145
-238.464,33.221
-235.68,33.288
-232.86,33.346
-230.016,33.395
-227.148,33.436
-224.244,33.469
-221.34,33.494
-218.4,33.512
-215.448,33.524
-212.484,33.53
-209.508,33.531
-206.52,33.526
-203.52,33.517
-200.52,33.504
-197.508,33.487
-194.484,33.468
-191.46,33.446
-188.424,33.423
-185.388,33.398
-182.352,33.373
-179.316,33.348
-176.268,33.323
-173.22,33.3
-170.172,33.278
-167.124,33.258
-164.064,33.241
-161.004,33.227
-157.944,33.216
-154.872,33.209
-151.8,33.207
-148.728,33.209
-145.644,33.217
-142.56,33.229
-139.464,33.247
-136.368,33.271
-133.26,33.301
-130.152,33.337
-127.032,33.378
-123.9,33.426
-120.768,33.479
-117.624,33.539
-114.468,33.603
-111.312,33.673
-108.144,33.748
-104.976,33.828
-101.796,33.912
-98.616,34
-95.424,34.09
-92.22,34.183
-89.028,34.279
-85.824,34.375
-82.62,34.471
-79.416,34.568
-76.212,34.662
-73.008,34.755
-69.816,34.845
-66.612,34.93
-63.432,35.011
-60.252,35.085
-57.084,35.152
-53.94,35.212
-50.796,35.262
-47.676,35.302
-44.568,35.331
-41.496,35.348
-38.436,35.352
-35.4,35.342
-32.388,35.318
-29.412,35.277
-26.472,35.221
-23.568,35.147
-20.688,35.055
-17.856,34.945
-15.048,34.816
-12.3,34.667
-9.588,34.499
-6.912,34.31
-4.284,34.102
-1.716,33.873
0.816,33.623
3.3,33.353
5.736,33.063
8.112,32.753
10.44,32.423
12.72,32.074
14.94,31.707
17.124,31.321
19.248,30.918
21.312,30.498
23.34,30.063
25.308,29.612
27.228,29.148
29.1,28.67
30.924,28.182
32.688,27.682
34.416,27.173
36.108,26.656
37.74,26.132
39.336,25.603
40.896,25.069
42.408,24.532
43.884,23.994
45.324,23.456
46.728,22.918
48.096,22.384
49.428,21.853
50.736,21.327
52.02,20.807
53.268,20.295
54.492,19.791
55.692,19.298
56.88,18.815
58.032,18.344
59.172,17.886
60.3,17.441
61.404,17.012
62.484,16.598
63.564,16.199
64.62,15.818
65.676,15.454
66.708,15.107
67.74,14.779
68.76,14.469
69.768,14.178
70.776,13.907
71.772,13.654
72.756,13.42
73.74,13.206
74.712,13.011
75.684,12.835
76.644,12.678
77.592,12.54
78.54,12.42
79.488,12.318
80.412,12.234
81.336,12.167
82.26,12.118
83.16,12.084
84.06,12.067
84.936,12.065
85.8,12.078
86.652,12.105
87.492,12.146
88.308,12.2
89.112,12.267
89.88,12.345
90.636,12.435
91.368,12.536
92.064,12.646
92.736,12.766
93.372,12.895
93.972,13.032
94.524,13.177
95.052,13.329
95.532,13.487
95.964,13.652
96.348,13.822
96.684,13.996
96.972,14.175
97.2,14.358
97.38,14.544
97.488,14.734
97.536,14.925
97.536,15.119
97.452,15.314
97.32,15.511
97.104,15.708
96.828,15.906
96.492,16.104
96.084,16.302
95.604,16.499
95.052,16.695
94.44,16.89
93.768,17.084
93.024,17.276
92.22,17.466
91.368,17.654
90.444,17.84
89.472,18.023
88.464,18.203
87.396,18.38
86.292,18.554
85.152,18.725
83.976,18.892
82.776,19.056
81.564,19.216
80.328,19.372
79.092,19.524
77.844,19.672
76.608,19.817
75.372,19.957
74.16,20.093
72.972,20.225
71.808,20.353
70.68,20.476
69.588,20.596
68.544,20.712
67.548,20.824
66.612,20.931
65.748,21.036
64.932,21.136
64.188,21.233
63.516,21.326
62.928,21.416
62.412,21.504
61.968,21.588
61.608,21.669
61.332,21.748
61.14,21.825
61.032,21.9
60.996,21.973
61.044,22.044
61.164,22.114
61.356,22.183
61.62,22.251
61.956,22.319
62.352,22.386
62.808,22.453
63.312,22.521
63.864,22.588
64.464,22.657
65.088,22.726
65.76,22.796
66.444,22.867
67.152,22.94
67.872,23.014
68.592,23.09
69.312,23.168
70.02,23.247
70.716,23.329
71.388,23.412
72.036,23.498
72.66,23.585
73.236,23.674
73.776,23.765
74.268,23.858
74.7,23.953
75.084,24.049
75.408,24.146
75.672,24.245
75.876,24.345
76.008,24.445
76.068,24.546
76.068,24.647
75.996,24.748
75.852,24.849
75.636,24.948
75.36,25.047
75.024,25.145
74.616,25.241
74.148,25.334
73.632,25.426
73.044,25.514
72.42,25.599
71.748,25.681
71.028,25.759
70.284,25.832
69.492,25.901
68.676,25.965
67.848,26.024
66.996,26.077
66.144,26.124
65.28,26.165
64.416,26.2
63.564,26.228
62.736,26.249
61.908,26.263
61.116,26.27
60.348,26.269
59.616,26.261
58.932,26.245
58.284,26.222
57.696,26.191
57.156,26.152
56.664,26.106
56.244,26.052
55.884,25.99
55.596,25.921
55.38,25.844
55.224,25.761
55.152,25.67
55.14,25.572
55.212,25.467
55.356,25.356
55.572,25.239
55.872,25.115
56.232,24.986
56.676,24.851
57.18,24.711
57.744,24.566
58.38,24.417
59.076,24.263
59.832,24.105
60.648,23.944
61.5,23.779
62.412,23.611
63.36,23.441
64.344,23.268
65.352,23.093
66.396,22.916
67.464,22.738
68.544,22.559
69.648,22.379
70.74,22.198
71.844,22.017
72.948,21.836
74.04,21.655
75.12,21.475
76.188,21.295
77.22,21.116
78.24,20.939
79.224,20.762
80.172,20.587
81.084,20.413
81.948,20.241
82.776,20.071
83.544,19.903
84.276,19.736
84.948,19.571
85.572,19.409
86.136,19.248
86.652,19.09
87.096,18.933
87.492,18.778
87.84,18.625
88.116,18.474
88.344,18.325
88.524,18.177
88.644,18.03
88.716,17.885
88.74,17.741
88.704,17.598
88.632,17.456
88.524,17.315
88.38,17.175
88.188,17.034
87.972,16.894
87.72,16.754
87.456,16.614
87.156,16.473
86.856,16.332
86.532,16.191
86.196,16.048
85.86,15.904
85.512,15.759
85.176,15.613
84.84,15.465
84.516,15.315
84.204,15.164
83.904,15.01
83.628,14.855
83.376,14.697
83.136,14.538
82.932,14.376
82.752,14.211
82.608,14.044
82.488,13.875
82.404,13.702
82.356,13.528
82.344,13.351
82.356,13.171
82.416,12.988
82.512,12.803
82.644,12.616
82.812,12.425
83.016,12.233
83.244,12.037
83.52,11.839
83.808,11.639
84.144,11.436
84.492,11.231
84.876,11.024
85.272,10.814
85.692,10.602
86.136,10.387
86.58,10.171
87.048,9.952
87.516,9.731
87.996,9.508
88.476,9.283
88.956,9.056
89.424,8.827
89.892,8.596
90.348,8.363
90.792,8.128
91.212,7.892
91.608,7.653
91.992,7.413
92.352,7.171
92.676,6.927
92.976,6.682
93.24,6.435
93.468,6.186
93.66,5.936
93.816,5.685
93.924,5.432
94.008,5.177
94.032,4.922
94.032,4.665
93.984,4.406
93.9,4.147
93.768,3.887
93.6,3.625
93.384,3.363
93.144,3.1
92.856,2.836
92.544,2.571
92.184,2.305
91.8,2.039
91.392,1.773
90.96,1.506
90.504,1.238
90.012,0.97
89.52,0.702
89.004,0.434
88.488,0.165
87.948,-0.104
87.408,-0.374
86.868,-0.643
86.328,-0.913
85.8,-1.183
85.272,-1.453
84.744,-1.724
84.24,-1.994
83.748,-2.265
83.268,-2.537
82.812,-2.809
82.368,-3.081
81.96,-3.355
81.564,-3.628
81.204,-3.903
80.856,-4.178
80.544,-4.454
80.256,-4.731
79.992,-5.008
79.752,-5.287
79.548,-5.567
79.356,-5.849
79.2,-6.131
79.056,-6.415
78.936,-6.7
78.84,-6.987
78.756,-7.275
78.684,-7.564
78.636,-7.855
78.588,-8.148
78.552,-8.442
78.516,-8.737
78.492,-9.034
78.456,-9.332
78.432,-9.632
78.384,-9.932
78.336,-10.235
78.276,-10.538
78.204,-10.842
78.12,-11.147
78,-11.453
77.868,-11.76
77.712,-12.067
77.532,-12.375
77.328,-12.683
77.088,-12.991
76.812,-13.299
76.512,-13.606
76.176,-13.914
75.816,-14.22
75.408,-14.526
74.976,-14.832
74.508,-15.136
74.004,-15.439
73.464,-15.74
72.888,-16.04
72.288,-16.338
71.652,-16.634
70.98,-16.929
70.296,-17.221
69.576,-17.511
68.82,-17.799
68.052,-18.084
67.26,-18.367
66.456,-18.647
65.628,-18.925
64.788,-19.2
63.924,-19.472
63.06,-19.742
62.184,-20.009
61.308,-20.273
60.432,-20.535
59.544,-20.794
58.656,-21.051
57.78,-21.305
56.904,-21.557
56.04,-21.807
55.188,-22.054
54.348,-22.3
53.508,-22.544
52.692,-22.786
51.9,-23.026
51.108,-23.265
50.352,-23.502
49.608,-23.738
48.888,-23.973
48.18,-24.207
47.508,-24.441
46.848,-24.673
46.212,-24.905
45.6,-25.137
45.012,-25.368
44.448,-25.599
43.896,-25.83
43.368,-26.06
42.876,-26.291
42.384,-26.521
41.928,-26.751
41.472,-26.981
41.052,-27.212
40.632,-27.442
40.236,-27.672
39.852,-27.901
39.48,-28.13
39.12,-28.359
38.76,-28.587
38.412,-28.815
38.076,-29.041
37.74,-29.266
37.404,-29.49
37.08,-29.713
36.756,-29.934
36.42,-30.153
36.084,-30.369
35.748,-30.583
35.412,-30.795
35.064,-31.003
34.716,-31.208
34.356,-31.41
33.984,-31.608
33.612,-31.802
33.216,-31.992
32.82,-32.178
32.412,-32.359
31.98,-32.536
31.548,-32.707
31.092,-32.874
30.636,-33.035
30.156,-33.192
29.664,-33.343
29.16,-33.489
28.644,-33.63
28.104,-33.765
27.552,-33.896
26.988,-34.022
26.412,-34.143
25.824,-34.259
25.212,-34.371
24.6,-34.479
23.964,-34.583
23.316,-34.684
22.644,-34.782
21.972,-34.877
21.276,-34.969
20.568,-35.06
19.848,-35.149
19.116,-35.237
18.372,-35.325
17.604,-35.413
16.836,-35.502
16.044,-35.592
15.24,-35.683
14.424,-35.776
13.596,-35.872
12.744,-35.971
11.88,-36.074
11.004,-36.18
10.116,-36.291
9.204,-36.408
8.292,-36.529
7.356,-36.656
6.396,-36.789
5.436,-36.928
4.452,-37.074
3.444,-37.227
2.436,-37.386
1.404,-37.552
0.36,-37.726
-0.708,-37.906
-1.788,-38.094
-2.88,-38.288
-3.984,-38.49
-5.1,-38.698
-6.24,-38.912
-7.392,-39.133
-8.556,-39.36
-9.732,-39.592
-10.908,-39.829
-12.108,-40.072
-13.32,-40.318
-14.532,-40.569
-15.756,-40.822
-16.98,-41.079
-18.216,-41.338
-19.464,-41.598
-20.712,-41.86
-21.96,-42.123
-23.208,-42.385
-24.456,-42.647
-25.692,-42.908
-26.94,-43.168
-28.176,-43.425
-29.412,-43.68
-30.636,-43.932
-31.86,-44.18
-33.06,-44.424
-34.26,-44.664
-35.448,-44.9
-36.612,-45.13
-37.776,-45.356
-38.916,-45.576
-40.032,-45.791
-41.148,-46
-42.228,-46.204
-43.296,-46.403
-44.34,-46.597
-45.36,-46.785
-46.356,-46.969
-47.328,-47.148
-48.276,-47.323
-49.2,-47.494
-50.1,-47.662
-50.964,-47.827
-51.804,-47.991
-52.608,-48.153
-53.388,-48.314
-54.132,-48.475
-54.852,-48.637
-55.536,-48.801
-56.184,-48.967
-56.808,-49.136
-57.384,-49.31
-57.936,-49.488
-58.452,-49.673
-58.932,-49.864
-59.376,-50.063
-59.772,-50.271
-60.144,-50.488
-60.468,-50.715
-60.768,-50.953
-61.02,-51.203
-61.236,-51.464
-61.416,-51.739
-61.56,-52.027
-61.656,-52.329
-61.728,-52.645
-61.752,-52.975
-61.74,-53.32
-61.692,-53.679
-61.608,-54.053
-61.488,-54.441
-61.332,-54.843
-61.152,-55.259
-60.924,-55.688
-60.672,-56.129
-60.384,-56.582
-60.072,-57.045
-59.724,-57.517
-59.352,-57.998
-58.944,-58.486
-58.524,-58.979
-58.08,-59.476
-57.612,-59.975
-57.12,-60.473
-56.616,-60.97
-56.088,-61.464
-55.56,-61.95
-55.008,-62.429
-54.456,-62.896
-53.892,-63.35
-53.316,-63.789
-52.74,-64.208
-52.164,-64.607
-51.588,-64.982
-51.012,-65.33
-50.448,-65.649
-49.884,-65.936
-49.32,-66.188
-48.78,-66.403
-48.252,-66.578
-47.736,-66.711
-47.244,-66.799
-46.764,-66.839
-46.308,-66.83
-45.864,-66.768
-45.456,-66.653
-45.084,-66.483
-44.724,-66.255
-44.412,-65.968
-44.124,-65.62
-43.872,-65.211
-43.656,-64.739
-43.476,-64.204
-43.344,-63.605
-43.26,-62.941
-43.212,-62.214
-43.224,-61.422
-43.284,-60.566
-43.392,-59.646
-43.56,-58.665
-43.776,-57.621
-44.064,-56.518
-44.412,-55.356
-44.82,-54.137
-45.288,-52.863
-45.84,-51.537
-46.464,-50.16
-47.148,-48.735
-47.916,-47.266
-48.768,-45.754
-49.704,-44.204
-50.712,-42.617
-51.816,-40.998
-53.004,-39.35
-54.276,-37.677
-55.644,-35.982
-57.108,-34.268
-58.668,-32.54
-60.324,-30.801
-62.076,-29.055
-63.924,-27.306
-65.868,-25.557
-67.92,-23.811
-70.068,-22.073
-72.312,-20.346
-74.664,-18.633
-77.1,-16.937
-79.644,-15.262
-82.284,-13.611
-85.008,-11.985
-87.828,-10.388
-90.744,-8.822
-93.744,-7.29
-96.828,-5.794
-99.996,-4.334
-103.236,-2.914
-106.548,-1.534
-109.932,-0.195
-113.388,1.101
-116.892,2.353
-120.444,3.562
-124.056,4.727
-127.704,5.847
-131.388,6.923
-135.096,7.954
-138.84,8.943
-142.584,9.888
-146.352,10.791
-150.12,11.652
-153.876,12.474
-157.62,13.256
-161.352,14.001
-165.06,14.709
-168.732,15.383
-172.356,16.024
-175.944,16.633
-179.472,17.212
-182.94,17.764
-186.336,18.29
-189.66,18.791
-192.912,19.27
-196.068,19.729
-199.128,20.169
-202.092,20.592
-204.948,20.999
-207.696,21.393
-210.324,21.776
-212.832,22.148
-215.22,22.511
-217.476,22.867
-219.6,23.216
-221.592,23.561
-223.428,23.903
-225.132,24.241
-226.692,24.578
-228.096,24.914
-229.344,25.251
-230.448,25.587
-231.396,25.925
-232.188,26.265
-232.824,26.606
-233.292,26.95
-233.616,27.296
-233.772,27.645
-233.772,27.995
-233.616,28.349
-233.304,28.704
-232.836,29.061
-232.212,29.42
-231.432,29.78
-230.496,30.142
-229.416,30.503
-228.192,30.864
-226.824,31.225
-225.3,31.584
-223.644,31.942
-221.856,32.297
-219.936,32.649
-217.884,32.998
-215.712,33.342
-213.408,33.681
-210.996,34.015
-208.464,34.342
-205.824,34.663
-203.088,34.976
-200.256,35.282
-197.328,35.579
-194.304,35.868
-191.208,36.147
-188.028,36.416
-184.776,36.675
-181.464,36.924
-178.08,37.163
-174.66,37.39
-171.18,37.607
-167.652,37.812
-164.1,38.006
-160.5,38.189
-156.888,38.361
-153.252,38.521
-149.592,38.67
-145.932,38.808
-142.272,38.936
-138.6,39.053
-134.94,39.159
-131.292,39.255
-127.656,39.342
-124.032,39.419
-120.444,39.488
-116.868,39.547
-113.34,39.599
-109.836,39.643
-106.368,39.68
-102.936,39.71
-99.552,39.733
-96.204,39.751
-92.904,39.764
-89.664,39.772
-86.46,39.776
-83.304,39.776
-80.208,39.773
-77.16,39.767
-74.16,39.758
-71.208,39.748
-68.316,39.736
-65.472,39.723
-62.664,39.709
-59.916,39.695
-57.216,39.68
-54.564,39.666
-51.96,39.652
-49.392,39.639
-46.872,39.626
-44.388,39.615
-41.94,39.604
-39.528,39.595
-37.152,39.586
-34.812,39.579
-32.508,39.573
-30.228,39.568
-27.972,39.564
-25.74,39.561
-23.532,39.559
-21.348,39.557
-19.188,39.556
-17.04,39.554
-14.916,39.553
-12.804,39.551
-10.704,39.548
-8.628,39.544
-6.564,39.539
-4.512,39.533
-2.472,39.524
-0.456,39.513
1.56,39.499
3.552,39.482
5.532,39.461
7.5,39.437
9.444,39.408
11.388,39.374
13.296,39.336
15.192,39.292
17.076,39.242
18.924,39.186
20.76,39.123
22.56,39.053
24.348,38.976
26.088,38.892
27.816,38.799
29.508,38.698
31.164,38.589
32.784,38.47
34.368,38.343
35.916,38.206
37.416,38.059
38.88,37.902
40.296,37.735
41.676,37.558
43.008,37.37
44.292,37.171
45.528,36.961
46.728,36.741
47.868,36.509
48.96,36.265
50.004,36.01
51,35.744
51.948,35.467
52.848,35.177
53.7,34.877
54.504,34.565
55.272,34.241
55.98,33.906
56.652,33.56
57.276,33.204
57.864,32.836
58.416,32.458
58.932,32.069
59.4,31.67
59.844,31.262
60.264,30.844
60.636,30.417
60.996,29.982
61.32,29.538
61.632,29.087
61.908,28.628
62.184,28.163
62.424,27.692
62.664,27.215
62.892,26.733
63.096,26.248
63.3,25.758
63.504,25.266
63.696,24.772
63.888,24.277
64.08,23.781
64.26,23.286
64.452,22.792
64.644,22.299
64.836,21.81
65.028,21.324
65.232,20.842
65.436,20.366
65.64,19.896
65.856,19.432
66.072,18.977
66.3,18.53
66.516,18.093
66.744,17.666
66.972,17.249
67.2,16.844
67.428,16.452
67.656,16.073
67.884,15.707
68.1,15.355
68.304,15.018
68.508,14.697
68.7,14.391
68.892,14.101
69.06,13.827
69.204,13.57
69.348,13.331
69.456,13.108
69.552,12.903
69.624,12.715
69.66,12.544
69.684,12.391
69.672,12.255
69.624,12.136
69.552,12.034
69.444,11.949
69.3,11.881
69.108,11.828
68.892,11.791
68.628,11.769
68.328,11.763
67.98,11.77
67.596,11.791
67.164,11.825
66.696,11.872
66.18,11.931
65.628,12.001
65.016,12.082
64.38,12.172
63.684,12.272
62.964,12.381
62.184,12.497
61.38,12.621
60.528,12.752
59.64,12.888
58.716,13.03
57.756,13.176
56.76,13.326
55.74,13.48
54.684,13.637
53.604,13.796
52.5,13.957
51.372,14.12
50.22,14.283
49.056,14.447
47.868,14.612
46.68,14.776
45.468,14.94
44.256,15.103
43.044,15.266
41.82,15.428
40.608,15.588
39.396,15.748
38.184,15.906
36.984,16.063
35.784,16.218
34.608,16.373
33.444,16.526
32.292,16.678
31.164,16.829
30.06,16.979
28.98,17.128
27.912,17.277
26.88,17.425
25.86,17.573
24.876,17.721
23.916,17.869
22.992,18.017
22.092,18.165
21.228,18.314
20.388,18.463
19.584,18.613
18.804,18.764
18.06,18.916
17.34,19.07
16.644,19.224
15.996,19.379
15.36,19.535
14.76,19.693
14.184,19.851
13.644,20.011
13.128,20.172
12.636,20.333
12.168,20.495
11.736,20.658
11.316,20.821
10.932,20.984
10.56,21.147
10.224,21.31
9.912,21.472
9.612,21.634
9.348,21.794
9.108,21.953
8.88,22.11
8.688,22.266
8.52,22.419
8.376,22.569
8.256,22.717
8.172,22.861
8.112,23.002
8.076,23.139
8.076,23.272
8.1,23.401
8.16,23.525
8.244,23.644
8.376,23.759
8.532,23.868
8.724,23.972
8.964,24.07
9.228,24.163
9.54,24.25
9.888,24.332
10.284,24.407
10.716,24.477
11.196,24.541
11.712,24.599
12.276,24.652
12.876,24.699
13.524,24.74
14.22,24.776
14.964,24.806
15.732,24.831
16.56,24.851
17.424,24.866
18.324,24.877
19.26,24.883
20.244,24.885
21.264,24.882
22.308,24.876
23.388,24.866
24.492,24.852
25.632,24.836
26.796,24.816
27.972,24.793
29.172,24.767
30.396,24.739
31.62,24.709
32.856,24.676
34.104,24.641
35.352,24.605
36.588,24.566
37.836,24.526
39.06,24.485
40.284,24.442
41.484,24.397
42.672,24.351
43.836,24.304
44.976,24.256
46.092,24.206
47.172,24.156
48.216,24.104
49.236,24.051
50.208,23.996
51.144,23.941
52.032,23.884
52.884,23.826
53.688,23.766
54.444,23.705
55.152,23.643
55.812,23.579
56.436,23.514
57,23.447
57.516,23.378
57.984,23.308
58.416,23.236
58.8,23.161
59.136,23.085
59.424,23.007
59.676,22.927
59.892,22.844
60.072,22.759
60.216,22.672
60.324,22.582
60.42,22.49
60.48,22.395
60.516,22.297
60.54,22.197
60.552,22.093
60.54,21.987
60.528,21.877
60.516,21.764
60.504,21.648
60.492,21.529
60.48,21.406
60.492,21.279
60.504,21.149
60.54,21.015
60.6,20.877
60.672,20.736
60.78,20.59
60.924,20.44
61.092,20.286
61.284,20.128
61.524,19.966
61.8,19.799
62.124,19.628
62.472,19.452
62.88,19.272
63.312,19.088
63.804,18.899
64.332,18.706
64.908,18.509
65.52,18.307
66.18,18.101
66.876,17.891
67.62,17.676
68.4,17.458
69.216,17.235
70.068,17.009
70.956,16.779
71.868,16.546
72.816,16.309
73.788,16.069
74.772,15.826
75.78,15.581
76.8,15.333
77.844,15.082
78.888,14.83
79.932,14.576
80.988,14.32
82.032,14.063
83.076,13.805
84.108,13.546
85.128,13.287
86.136,13.027
87.12,12.767
88.08,12.508
89.028,12.249
89.94,11.991
90.816,11.734
91.656,11.478
92.472,11.223
93.24,10.969
93.984,10.718
94.68,10.468
95.328,10.22
95.94,9.974
96.504,9.73
97.02,9.488
97.5,9.248
97.932,9.01
98.316,8.775
98.664,8.541
98.964,8.309
99.216,8.079
99.432,7.851
99.6,7.625
99.744,7.399
99.84,7.175
99.9,6.952
99.924,6.73
99.924,6.508
99.888,6.287
99.828,6.065
99.744,5.843
99.624,5.621
99.492,5.397
99.348,5.173
99.18,4.947
99,4.719
98.796,4.49
98.604,4.258
98.388,4.024
98.172,3.787
97.944,3.547
97.728,3.303
97.512,3.057
97.284,2.806
97.068,2.552
96.852,2.294
96.648,2.033
96.456,1.767
96.264,1.497
96.084,1.222
95.904,0.944
95.748,0.661
95.592,0.375
95.448,0.084
95.328,-0.211
95.208,-0.509
95.088,-0.812
94.992,-1.118
94.896,-1.427
94.824,-1.74
94.74,-2.056
94.68,-2.375
94.608,-2.696
94.548,-3.02
94.5,-3.346
94.44,-3.674
94.38,-4.004
94.332,-4.335
94.26,-4.668
94.2,-5.001
94.128,-5.335
94.044,-5.67
93.948,-6.005
93.84,-6.34
93.72,-6.675
93.588,-7.009
93.432,-7.343
93.252,-7.675
93.06,-8.007
92.832,-8.338
92.592,-8.667
92.316,-8.995
92.016,-9.322
91.68,-9.646
91.32,-9.969
90.924,-10.29
90.492,-10.609
90.024,-10.925
89.532,-11.24
88.992,-11.552
88.416,-11.862
87.804,-12.17
87.156,-12.475
86.472,-12.779
85.752,-13.079
84.984,-13.378
84.192,-13.674
83.352,-13.968
82.476,-14.259
81.564,-14.548
80.628,-14.835
79.644,-15.119
78.636,-15.401
77.592,-15.681
76.524,-15.958
75.432,-16.233
74.304,-16.505
73.152,-16.775
71.988,-17.043
70.8,-17.308
69.588,-17.57
68.376,-17.83
67.14,-18.088
65.904,-18.342
64.656,-18.594
63.408,-18.843
62.148,-19.089
60.9,-19.332
59.664,-19.571
58.428,-19.808
57.192,-20.041
55.98,-20.271
54.78,-20.497
53.604,-20.719
52.452,-20.938
51.312,-21.153
50.208,-21.364
49.128,-21.571
48.072,-21.773
47.064,-21.971
46.08,-22.165
45.132,-22.354
44.22,-22.539
43.344,-22.719
42.504,-22.895
41.712,-23.066
40.944,-23.232
40.224,-23.393
39.552,-23.55
38.904,-23.701
38.304,-23.848
37.74,-23.99
37.212,-24.128
36.72,-24.261
36.252,-24.389
35.82,-24.513
35.412,-24.632
35.028,-24.747
34.68,-24.858
34.344,-24.966
34.02,-25.069
33.708,-25.168
33.408,-25.264
33.12,-25.357
32.82,-25.447
32.52,-25.534
32.22,-25.618
31.908,-25.699
31.572,-25.779
31.224,-25.856
30.852,-25.931
30.444,-26.005
30.012,-26.078
29.532,-26.149
29.016,-26.219
28.464,-26.289
27.852,-26.358
27.18,-26.427
26.46,-26.496
25.68,-26.565
24.828,-26.634
23.928,-26.704
22.944,-26.774
21.888,-26.846
20.772,-26.918
19.572,-26.991
18.3,-27.065
16.944,-27.141
15.516,-27.218
14.016,-27.296
12.432,-27.376
10.788,-27.457
9.048,-27.54
7.248,-27.624
5.388,-27.71
3.444,-27.798
1.44,-27.887
-0.624,-27.977
-2.748,-28.069
-4.92,-28.162
-7.14,-28.257
-9.408,-28.353
-11.712,-28.45
-14.052,-28.547
-16.416,-28.646
-18.804,-28.746
-21.216,-28.846
-23.628,-28.947
-26.04,-29.048
-28.452,-29.149
-30.84,-29.251
-33.228,-29.352
-35.58,-29.454
-37.896,-29.556
-40.176,-29.657
-42.42,-29.758
-44.592,-29.858
-46.716,-29.958
-48.78,-30.058
-50.76,-30.157
-52.68,-30.256
-54.504,-30.353
-56.244,-30.451
-57.888,-30.548
-59.436,-30.644
-60.888,-30.74
-62.232,-30.836
-63.48,-30.931
-64.608,-31.027
-65.628,-31.123
-66.54,-31.219
-67.332,-31.315
-68.016,-31.412
-68.58,-31.51
-69.036,-31.61
-69.384,-31.71
-69.624,-31.813
-69.756,-31.918
-69.792,-32.024
-69.72,-32.134
-69.552,-32.247
-69.3,-32.363
-68.952,-32.482
-68.532,-32.606
-68.028,-32.734
-67.452,-32.866
-66.816,-33.004
-66.12,-33.147
-65.376,-33.295
-64.572,-33.45
-63.744,-33.611
-62.88,-33.778
-61.98,-33.952
-61.068,-34.134
-60.132,-34.322
-59.196,-34.518
-58.26,-34.721
-57.324,-34.933
-56.4,-35.152
-55.488,-35.379
-54.6,-35.614
-53.736,-35.857
-52.896,-36.108
-52.092,-36.367
-51.312,-36.634
-50.58,-36.909
-49.884,-37.191
-49.236,-37.481
-48.636,-37.778
-48.072,-38.083
-47.568,-38.394
-47.1,-38.712
-46.68,-39.036
-46.308,-39.367
-45.984,-39.703
-45.708,-40.044
-45.468,-40.39
-45.276,-40.741
-45.132,-41.096
-45.012,-41.455
-44.94,-41.818
-44.892,-42.183
-44.892,-42.552
-44.904,-42.922
-44.952,-43.295
-45.024,-43.669
-45.108,-44.045
-45.216,-44.422
-45.348,-44.799
-45.492,-45.177
-45.648,-45.555
-45.804,-45.934
-45.984,-46.312
-46.164,-46.691
-46.356,-47.069
-46.548,-47.447
-46.752,-47.824
-46.956,-48.202
-47.172,-48.579
-47.4,-48.956
-47.628,-49.334
-47.868,-49.712
-48.12,-50.091
-48.396,-50.47
-48.684,-50.851
-48.984,-51.234
-49.32,-51.618
-49.68,-52.006
-50.076,-52.395
-50.496,-52.789
-50.964,-53.186
-51.48,-53.587
-52.044,-53.993
-52.668,-54.404
-53.352,-54.82
-54.096,-55.243
-54.924,-55.672
-55.812,-56.107
-56.796,-56.55
-57.852,-57
-59.004,-57.457
-60.252,-57.922
-61.596,-58.394
-63.048,-58.875
-64.596,-59.362
-66.264,-59.857
-68.04,-60.359
-69.924,-60.868
-71.928,-61.382
-74.04,-61.902
-76.272,-62.427
-78.612,-62.956
-81.072,-63.487
-83.652,-64.02
-86.328,-64.553
-89.124,-65.085
-92.016,-65.614
-95.016,-66.139
-98.1,-66.659
-101.292,-67.17
-104.556,-67.671
-107.904,-68.16
-111.324,-68.634
-114.816,-69.092
-118.368,-69.531
-121.956,-69.948
-125.604,-70.341
-129.288,-70.707
-132.996,-71.043
-136.716,-71.347
-140.46,-71.616
-144.204,-71.847
-147.936,-72.038
-151.656,-72.185
-155.352,-72.287
-159.024,-72.34
-162.66,-72.342
-166.236,-72.291
-169.776,-72.184
-173.244,-72.019
-176.652,-71.794
-179.976,-71.506
-183.228,-71.155
-186.396,-70.739
-189.48,-70.256
-192.468,-69.704
-195.348,-69.084
-198.132,-68.394
-200.808,-67.634
-203.364,-66.804
-205.824,-65.903
-208.164,-64.932
-210.384,-63.891
-212.484,-62.781
-214.464,-61.604
-216.336,-60.359
-218.076,-59.05
-219.696,-57.677
-221.196,-56.244
-222.576,-54.751
-223.836,-53.202
-224.964,-51.6
-225.984,-49.947
-226.884,-48.246
-227.652,-46.502
-228.312,-44.717
-228.852,-42.895
-229.272,-41.04
-229.572,-39.156
-229.764,-37.247
-229.836,-35.317
-229.8,-33.37
-229.644,-31.411
-229.368,-29.444
-228.984,-27.472
-228.492,-25.5
-227.88,-23.533
-227.16,-21.573
-226.32,-19.626
-225.372,-17.695
-224.316,-15.783
-223.14,-13.895
-221.856,-12.033
-220.464,-10.201
-218.952,-8.403
-217.332,-6.64
-215.604,-4.915
-213.768,-3.231
-211.812,-1.59
-209.76,0.007
-207.588,1.557
-205.32,3.059
-202.932,4.512
-200.448,5.916
-197.856,7.269
-195.168,8.571
-192.372,9.823
-189.48,11.023
-186.504,12.173
-183.42,13.273
-180.252,14.324
-177,15.326
-173.664,16.282
-170.244,17.191
-166.74,18.056
-163.176,18.879
-159.54,19.66
-155.832,20.402
-152.076,21.107
-148.26,21.776
-144.396,22.412
-140.496,23.017
-136.548,23.592
-132.564,24.141
-128.544,24.665
-124.512,25.166
-120.468,25.646
-116.4,26.107
-112.332,26.552
-108.264,26.981
-104.196,27.398
-100.14,27.802
-96.096,28.197
-92.076,28.584
-88.08,28.963
-84.12,29.337
-80.196,29.705
-76.32,30.07
-72.48,30.432
-68.7,30.792
-64.98,31.151
-61.308,31.508
-57.708,31.864
-54.168,32.22
-50.712,32.576
-47.316,32.931
-44.004,33.286
-40.776,33.64
-37.632,33.993
-34.56,34.345
-31.584,34.695
-28.704,35.043
-25.908,35.389
-23.196,35.73
-20.58,36.068
-18.048,36.401
-15.612,36.729
-13.272,37.05
-11.016,37.365
-8.844,37.672
-6.768,37.971
-4.764,38.262
-2.856,38.542
-1.02,38.813
0.732,39.073
2.4,39.322
4.008,39.559
5.544,39.784
7.008,39.997
8.412,40.197
9.768,40.385
11.064,40.559
12.3,40.72
13.5,40.869
14.664,41.004
15.78,41.126
16.872,41.236
17.94,41.333
18.984,41.418
20.004,41.491
21.012,41.553
22.02,41.605
23.016,41.646
24.012,41.678
25.008,41.7
26.016,41.714
27.036,41.721
28.08,41.721
29.124,41.715
30.204,41.703
31.296,41.687
32.424,41.667
33.576,41.644
34.752,41.619
35.964,41.592
37.212,41.565
38.484,41.537
39.78,41.51
41.124,41.484
42.492,41.459
43.884,41.437
45.312,41.418
46.764,41.402
48.24,41.39
49.74,41.382
51.264,41.378
52.8,41.379
54.348,41.384
55.896,41.395
57.456,41.41
59.016,41.43
60.576,41.455
62.124,41.485
63.66,41.519
65.172,41.557
66.672,41.6
68.136,41.646
69.564,41.695
70.968,41.747
72.312,41.801
73.62,41.857
74.88,41.914
76.08,41.972
77.208,42.029
78.288,42.086
79.296,42.141
80.22,42.195
81.084,42.245
81.864,42.291
82.572,42.333
83.196,42.371
83.736,42.402
84.192,42.426
84.564,42.444
84.852,42.453
85.044,42.454
85.164,42.446
85.2,42.427
85.152,42.398
85.032,42.359
84.828,42.307
84.552,42.244
84.192,42.168
83.784,42.079
83.304,41.977
82.764,41.862
82.164,41.733
81.516,41.59
80.832,41.433
80.088,41.262
79.32,41.077
78.528,40.877
77.7,40.664
76.848,40.436
75.984,40.195
75.12,39.94
74.232,39.672
73.356,39.391
72.48,39.097
71.616,38.79
70.764,38.471
69.924,38.141
69.108,37.8
68.316,37.448
67.536,37.085
66.804,36.713
66.084,36.332
65.4,35.942
64.752,35.544
64.14,35.138
63.552,34.725
63,34.306
62.484,33.881
61.992,33.45
61.536,33.015
61.116,32.575
60.708,32.131
60.336,31.684
59.976,31.233
59.64,30.781
59.316,30.326
59.016,29.87
58.716,29.413
58.416,28.954
58.128,28.496
57.828,28.037
57.54,27.578
57.228,27.12
56.904,26.663
56.58,26.206
56.22,25.751
55.848,25.298
55.464,24.846
55.032,24.397
54.588,23.949
54.108,23.504
53.592,23.061
53.052,22.621
52.476,22.184
51.864,21.75
51.216,21.319
50.532,20.892
49.824,20.468
49.08,20.048
48.3,19.633
47.484,19.221
46.656,18.814
45.792,18.412
44.916,18.015
44.016,17.623
43.092,17.237
42.156,16.857
41.22,16.484
40.272,16.117
39.312,15.757
38.364,15.405
37.428,15.06
36.492,14.724
35.568,14.397
34.668,14.08
33.792,13.772
32.94,13.474
32.112,13.187
31.332,12.912
30.576,12.648
29.868,12.397
29.196,12.158
28.572,11.934
27.996,11.723
27.48,11.526
27.012,11.344
26.592,11.178
26.244,11.028
25.944,10.893
25.692,10.776
25.512,10.675
25.38,10.591
25.32,10.525
25.308,10.477
25.344,10.446
25.44,10.434
25.584,10.439
25.788,10.463
26.028,10.505
26.328,10.564
26.652,10.642
27.024,10.737
27.432,10.849
27.876,10.979
28.344,11.125
28.836,11.287
29.352,11.464
29.892,11.657
30.432,11.864
30.996,12.085
31.56,12.319
32.124,12.565
32.688,12.822
33.252,13.09
33.816,13.368
34.356,13.654
34.896,13.948
35.412,14.249
35.916,14.556
36.408,14.867
36.876,15.183
37.32,15.501
37.74,15.821
38.148,16.142
38.52,16.463
38.88,16.782
39.216,17.1
39.528,17.415
39.816,17.726
40.092,18.033
40.356,18.334
40.596,18.629
40.824,18.918
41.04,19.199
41.256,19.472
41.46,19.737
41.664,19.993
41.868,20.241
42.072,20.478
42.288,20.706
42.516,20.925
42.768,21.133
43.02,21.331
43.308,21.52
43.608,21.698
43.944,21.868
44.304,22.027
44.7,22.178
45.12,22.319
45.588,22.452
46.104,22.577
46.644,22.694
47.244,22.805
47.88,22.908
48.564,23.005
49.284,23.097
50.064,23.184
50.88,23.266
51.744,23.345
52.656,23.42
53.616,23.493
54.612,23.563
55.656,23.632
56.736,23.7
57.852,23.767
58.992,23.834
60.18,23.902
61.392,23.971
62.628,24.041
63.888,24.112
65.16,24.185
66.456,24.261
67.764,24.339
69.072,24.419
70.392,24.502
71.712,24.588
73.032,24.677
74.34,24.768
75.636,24.862
76.932,24.959
78.204,25.058
79.452,25.159
80.676,25.262
81.888,25.367
83.064,25.474
84.204,25.581
85.32,25.689
86.4,25.797
87.456,25.905
88.464,26.013
89.436,26.12
90.384,26.224
91.284,26.327
92.148,26.428
92.976,26.525
93.768,26.62
94.524,26.71
95.244,26.795
95.928,26.876
96.588,26.952
97.212,27.022
97.8,27.086
98.364,27.144
98.904,27.195
99.42,27.239
99.912,27.276
100.392,27.306
100.836,27.327
101.28,27.341
101.7,27.348
102.108,27.346
102.504,27.336
102.888,27.319
103.272,27.293
103.644,27.26
104.004,27.219
104.364,27.171
104.712,27.115
105.06,27.053
105.408,26.983
105.744,26.908
106.08,26.825
106.416,26.737
106.74,26.644
107.064,26.545
107.388,26.442
107.7,26.334
108,26.222
108.3,26.107
108.588,25.988
108.864,25.867
109.14,25.743
109.392,25.616
109.632,25.489
109.86,25.359
110.064,25.229
110.268,25.097
110.436,24.966
110.592,24.833
110.724,24.701
110.832,24.569
110.928,24.437
110.988,24.306
111.024,24.175
111.048,24.044
111.036,23.914
111,23.785
110.94,23.656
110.868,23.528
110.76,23.4
110.628,23.272
110.472,23.145
110.304,23.017
110.1,22.89
109.884,22.762
109.656,22.633
109.404,22.503
109.14,22.372
108.852,22.24
108.564,22.106
108.264,21.97
107.952,21.831
107.64,21.69
107.328,21.546
107.004,21.399
106.68,21.248
106.368,21.094
106.056,20.936
105.756,20.774
105.456,20.607
105.18,20.436
104.916,20.26
104.652,20.079
104.424,19.893
104.196,19.702
104.004,19.507
103.824,19.306
103.668,19.1
103.536,18.889
103.44,18.673
103.356,18.452
103.296,18.227
103.272,17.997
103.272,17.762
103.296,17.524
103.356,17.281
103.44,17.035
103.536,16.786
103.668,16.533
103.824,16.277
104.004,16.019
104.208,15.759
104.436,15.497
104.676,15.233
104.94,14.968
105.216,14.702
105.504,14.436
105.804,14.169
106.116,13.902
106.44,13.635
106.752,13.369
107.076,13.104
107.4,12.839
107.724,12.576
108.036,12.314
108.336,12.053
108.636,11.794
108.912,11.536
109.164,11.281
109.404,11.027
109.608,10.774
109.8,10.524
109.944,10.275
110.076,10.027
110.16,9.782
110.196,9.537
110.208,9.294
110.16,9.052
110.076,8.812
109.944,8.571
109.752,8.332
109.512,8.093
109.224,7.854
108.864,7.615
108.456,7.376
107.988,7.137
107.46,6.897
106.86,6.656
106.2,6.414
105.48,6.171
104.7,5.926
103.848,5.68
102.936,5.433
101.964,5.183
100.92,4.931
99.816,4.678
98.652,4.422
97.428,4.164
96.156,3.904
94.812,3.641
93.42,3.376
91.98,3.109
90.492,2.839
88.944,2.567
87.36,2.293
85.74,2.016
84.072,1.737
82.38,1.457
80.64,1.174
78.888,0.889
77.112,0.602
75.3,0.314
73.488,0.024
71.652,-0.267
69.816,-0.56
67.968,-0.854
66.12,-1.149
64.272,-1.446
62.424,-1.743
60.588,-2.04
58.764,-2.339
56.952,-2.638
55.152,-2.937
53.376,-3.237
51.612,-3.537
49.884,-3.838
48.18,-4.138
46.488,-4.438
44.832,-4.739
43.212,-5.039
41.604,-5.339
40.032,-5.639
38.496,-5.939
36.972,-6.238
35.484,-6.537
34.02,-6.836
32.592,-7.134
31.176,-7.431
29.784,-7.728
28.404,-8.025
27.048,-8.321
25.716,-8.616
24.384,-8.911
23.064,-9.205
21.756,-9.498
20.436,-9.791
19.128,-10.082
17.82,-10.373
16.5,-10.662
15.18,-10.951
13.848,-11.238
12.492,-11.524
11.124,-11.809
9.732,-12.093
8.328,-12.375
6.9,-12.656
5.436,-12.936
3.948,-13.213
2.436,-13.49
0.888,-13.765
-0.696,-14.038
-2.304,-14.309
-3.948,-14.579
-5.628,-14.847
-7.332,-15.114
-9.072,-15.378
-10.848,-15.641
-12.648,-15.903
-14.472,-16.162
-16.332,-16.42
-18.204,-16.677
-20.112,-16.932
-22.02,-17.186
-23.964,-17.438
-25.908,-17.689
-27.864,-17.94
-29.832,-18.189
-31.8,-18.437
-33.78,-18.684
-35.736,-18.931
-37.704,-19.177
-39.648,-19.423
-41.592,-19.668
-43.512,-19.913
-45.408,-20.158
-47.28,-20.404
-49.128,-20.649
-50.952,-20.895
-52.74,-21.141
-54.492,-21.387
-56.208,-21.634
-57.888,-21.881
-59.532,-22.129
-61.128,-22.378
-62.688,-22.627
-64.212,-22.877
-65.688,-23.128
-67.116,-23.379
-68.508,-23.631
-69.852,-23.883
-71.172,-24.135
-72.432,-24.388
-73.668,-24.641
-74.868,-24.893
-76.032,-25.146
-77.16,-25.398
-78.264,-25.649
-79.332,-25.9
-80.388,-26.149
-81.408,-26.397
-82.416,-26.644
-83.412,-26.888
-84.396,-27.131
-85.368,-27.37
-86.328,-27.608
-87.276,-27.842
-88.236,-28.073
-89.184,-28.3
-90.144,-28.524
-91.104,-28.743
-92.064,-28.958
-93.036,-29.168
-94.008,-29.373
-94.992,-29.573
-95.988,-29.767
-96.996,-29.956
-98.004,-30.139
-99.024,-30.317
-100.056,-30.488
-101.088,-30.653
-102.132,-30.811
-103.176,-30.964
-104.22,-31.11
-105.276,-31.25
-106.32,-31.383
-107.352,-31.51
-108.384,-31.631
-109.404,-31.746
-110.4,-31.855
-111.384,-31.958
-112.344,-32.056
-113.28,-32.149
-114.192,-32.237
-115.068,-32.32
-115.908,-32.399
-116.712,-32.473
-117.48,-32.544
-118.2,-32.612
-118.872,-32.676
-119.496,-32.738
-120.072,-32.798
-120.6,-32.856
-121.068,-32.912
-121.488,-32.968
-121.848,-33.023
-122.16,-33.077
-122.424,-33.132
-122.628,-33.187
-122.784,-33.243
-122.892,-33.3
-122.952,-33.358
-122.976,-33.418
-122.952,-33.48
-122.904,-33.544
-122.82,-33.61
-122.712,-33.679
-122.58,-33.751
-122.436,-33.825
-122.292,-33.902
-122.136,-33.982
-121.992,-34.064
-121.86,-34.149
-121.752,-34.237
-121.668,-34.328
-121.62,-34.421
-121.608,-34.517
-121.656,-34.615
-121.764,-34.715
-121.932,-34.817
-122.172,-34.92
-122.496,-35.025
-122.916,-35.131
-123.432,-35.239
-124.044,-35.347
-124.764,-35.456
-125.604,-35.565
-126.564,-35.674
-127.644,-35.783
-128.856,-35.893
-130.212,-36.001
-131.7,-36.11
-133.332,-36.217
-135.096,-36.325
-137.016,-36.431
-139.08,-36.537
-141.288,-36.642
-143.628,-36.746
-146.124,-36.849
-148.764,-36.953
-151.536,-37.055
-154.44,-37.158
-157.476,-37.261
-160.644,-37.364
-163.92,-37.467
-167.316,-37.571
-170.82,-37.677
-174.408,-37.784
-178.104,-37.893
-181.872,-38.004
-185.7,-38.118
-189.612,-38.236
-193.56,-38.356
-197.556,-38.481
-201.576,-38.611
-205.62,-38.745
-209.664,-38.885
-213.708,-39.031
-217.74,-39.183
-221.748,-39.341
-225.708,-39.507
-229.62,-39.681
-233.484,-39.862
-237.264,-40.051
-240.96,-40.249
-244.572,-40.456
-248.076,-40.672
-251.472,-40.896
-254.736,-41.131
-257.88,-41.374
-260.88,-41.627
-263.724,-41.89
-266.424,-42.162
-268.968,-42.444
-271.344,-42.735
-273.54,-43.035
-275.568,-43.345
-277.416,-43.663
-279.084,-43.99
-280.56,-44.325
-281.844,-44.668
-282.96,-45.019
-283.872,-45.376
-284.604,-45.741
-285.144,-46.112
-285.492,-46.489
-285.66,-46.871
-285.66,-47.258
-285.468,-47.65
-285.108,-48.046
-284.568,-48.445
-283.872,-48.847
-283.008,-49.252
-281.988,-49.659
-280.824,-50.068
-279.504,-50.478
-278.052,-50.889
-276.468,-51.3
-274.752,-51.712
-272.916,-52.124
-270.972,-52.536
-268.908,-52.948
-266.748,-53.359
-264.492,-53.769
-262.152,-54.179
-259.716,-54.589
-257.208,-54.998
-254.628,-55.407
-251.976,-55.816
-249.264,-56.226
-246.492,-56.635
-243.672,-57.046
-240.804,-57.458
-237.888,-57.871
-234.936,-58.287
-231.948,-58.705
-228.924,-59.126
-225.864,-59.551
-222.768,-59.979
-219.66,-60.413
-216.516,-60.851
-213.348,-61.295
-210.156,-61.745
-206.952,-62.202
-203.712,-62.665
-200.46,-63.136
-197.172,-63.614
-193.872,-64.1
-190.548,-64.594
-187.2,-65.096
-183.828,-65.605
-180.432,-66.123
-177,-66.648
-173.556,-67.18
-170.064,-67.719
-166.56,-68.264
-163.008,-68.814
-159.432,-69.368
-155.832,-69.926
-152.184,-70.486
-148.5,-71.047
-144.78,-71.607
-141.024,-72.164
-137.232,-72.718
-133.404,-73.265
-129.528,-73.804
-125.616,-74.333
-121.668,-74.848
-117.672,-75.348
-113.64,-75.83
-109.572,-76.292
-105.468,-76.73
-101.328,-77.141
-97.164,-77.522
-92.952,-77.871
-88.716,-78.184
-84.456,-78.459
-80.16,-78.691
-75.852,-78.877
-71.52,-79.016
-67.176,-79.102
-62.808,-79.134
-58.44,-79.108
-54.06,-79.021
-49.68,-78.871
-45.3,-78.654
-40.932,-78.369
-36.564,-78.012
-32.22,-77.582
-27.888,-77.076
-23.592,-76.493
-19.32,-75.831
-15.084,-75.088
-10.884,-74.264
-6.72,-73.358
-2.616,-72.368
1.44,-71.296
5.436,-70.14
9.372,-68.901
13.236,-67.579
17.028,-66.176
20.748,-64.693
24.384,-63.131
27.924,-61.492
31.392,-59.778
34.764,-57.991
38.04,-56.135
41.208,-54.212
44.28,-52.225
47.256,-50.178
50.112,-48.074
52.86,-45.918
55.5,-43.714
58.02,-41.465
60.42,-39.178
62.712,-36.855
64.884,-34.502
66.936,-32.124
68.88,-29.726
70.692,-27.313
72.396,-24.889
73.98,-22.46
75.444,-20.032
76.8,-17.608
78.036,-15.194
79.164,-12.794
80.184,-10.414
81.096,-8.058
81.912,-5.73
82.62,-3.435
83.244,-1.177
83.76,1.041
84.192,3.215
84.54,5.341
84.816,7.417
85.008,9.439
85.128,11.405
85.176,13.313
85.176,15.161
85.104,16.947
84.996,18.669
84.84,20.328
84.636,21.921
84.396,23.449
84.132,24.911
83.832,26.307
83.52,27.638
83.196,28.904
82.86,30.106
82.512,31.245
82.164,32.324
81.828,33.342
81.492,34.302
81.18,35.206
80.868,36.056
80.592,36.853
80.328,37.601
80.1,38.302
79.896,38.958
79.728,39.572
79.596,40.146
79.488,40.683
79.44,41.186
79.416,41.657
79.452,42.098
79.524,42.514
79.632,42.904
79.8,43.274
80.004,43.623
80.256,43.956
80.556,44.273
80.892,44.578
81.288,44.871
81.72,45.155
82.188,45.431
82.704,45.701
83.256,45.965
83.844,46.226
84.48,46.484
85.14,46.741
85.824,46.996
86.544,47.251
87.288,47.506
88.056,47.761
88.848,48.016
89.652,48.273
90.468,48.53
91.296,48.787
92.124,49.045
92.964,49.303
93.792,49.56
94.632,49.817
95.46,50.072
96.276,50.325
97.068,50.575
97.86,50.822
98.616,51.064
99.36,51.302
100.068,51.535
100.74,51.761
101.388,51.98
101.988,52.191
102.564,52.394
103.08,52.587
103.56,52.771
103.98,52.944
104.352,53.107
104.676,53.257
104.94,53.396
105.144,53.523
105.288,53.636
105.372,53.737
105.396,53.824
105.348,53.898
105.24,53.959
105.06,54.005
104.82,54.039
104.508,54.058
104.124,54.065
103.68,54.058
103.164,54.038
102.576,54.006
101.928,53.962
101.208,53.906
100.428,53.838
99.588,53.76
98.688,53.671
97.728,53.573
96.708,53.466
95.628,53.35
94.512,53.226
93.336,53.096
92.112,52.958
90.852,52.815
89.556,52.667
88.224,52.514
86.868,52.358
85.476,52.199
84.06,52.037
82.632,51.873
81.18,51.709
79.728,51.544
78.276,51.379
76.812,51.214
75.36,51.051
73.908,50.889
72.468,50.73
71.052,50.573
69.66,50.419
68.28,50.268
66.936,50.12
65.628,49.977
64.344,49.837
63.108,49.701
61.92,49.569
60.768,49.442
59.652,49.318
58.596,49.199
57.588,49.083
56.64,48.972
55.74,48.864
54.888,48.759
54.096,48.657
53.352,48.558
52.656,48.462
52.032,48.367
51.444,48.273
50.904,48.181
50.424,48.089
49.992,47.996
49.596,47.903
49.248,47.808
48.936,47.711
48.66,47.611
48.42,47.508
48.216,47.401
48.036,47.289
47.892,47.171
47.76,47.047
47.652,46.917
47.556,46.778
47.484,46.631
47.412,46.475
47.352,46.31
47.292,46.134
47.244,45.947
47.196,45.749
47.148,45.539
47.1,45.316
47.04,45.08
46.992,44.831
46.92,44.568
46.86,44.291
46.788,43.999
46.704,43.693
46.632,43.372
46.548,43.035
46.452,42.684
46.368,42.318
46.284,41.936
46.2,41.539
46.116,41.128
46.044,40.701
45.972,40.26
45.924,39.805
45.888,39.336
45.864,38.853
45.852,38.358
45.864,37.85
45.912,37.33
45.972,36.798
46.068,36.255
46.2,35.703
46.356,35.141
46.56,34.57
46.788,33.991
47.052,33.405
47.364,32.813
47.712,32.215
48.108,31.613
48.528,31.007
49.008,30.397
49.512,29.786
50.064,29.174
50.664,28.562
51.288,27.95
51.96,27.34
52.656,26.733
53.388,26.129
54.156,25.53
54.948,24.935
55.764,24.347
56.604,23.766
57.456,23.192
58.332,22.627
59.22,22.071
60.12,21.525
61.02,20.99
61.932,20.466
62.832,19.954
63.732,19.455
64.632,18.969
65.508,18.496
66.372,18.038
67.224,17.594
68.064,17.164
68.868,16.751
69.66,16.352
70.416,15.97
71.148,15.603
71.844,15.253
72.516,14.918
73.152,14.601
73.752,14.299
74.316,14.015
74.856,13.746
75.36,13.494
75.828,13.259
76.26,13.039
76.668,12.836
77.04,12.649
77.388,12.477
77.7,12.321
78,12.18
78.264,12.054
78.516,11.943
78.744,11.846
78.96,11.764
79.164,11.695
79.356,11.64
79.536,11.599
79.716,11.57
79.896,11.554
80.088,11.551
80.268,11.559
80.46,11.58
80.664,11.612
80.88,11.655
81.108,11.709
81.348,11.773
81.612,11.849
81.9,11.934
82.212,12.029
82.548,12.134
82.908,12.248
83.292,12.371
83.7,12.503
84.144,12.643
84.624,12.793
85.128,12.95
85.656,13.115
86.22,13.288
86.808,13.469
87.432,13.656
88.08,13.851
88.752,14.053
89.448,14.261
90.168,14.476
90.912,14.696
91.68,14.923
92.472,15.155
93.276,15.392
94.092,15.634
94.932,15.881
95.772,16.133
96.624,16.389
97.488,16.648
98.352,16.911
99.228,17.177
100.092,17.446
100.968,17.717
101.832,17.991
102.696,18.267
103.548,18.543
104.4,18.821
105.228,19.1
106.056,19.379
106.86,19.658
107.652,19.937
108.432,20.215
109.188,20.492
109.92,20.768
110.64,21.042
111.324,21.314
111.996,21.584
112.644,21.85
113.268,22.114
113.856,22.374
114.432,22.631
114.972,22.884
115.488,23.133
115.98,23.377
116.448,23.616
116.88,23.85
117.288,24.079
117.66,24.303
118.02,24.521
118.344,24.733
118.632,24.939
118.908,25.139
119.148,25.333
119.364,25.52
119.556,25.7
119.712,25.873
119.856,26.04
119.964,26.2
120.048,26.352
120.12,26.498
120.156,26.636
120.168,26.767
120.156,26.891
120.132,27.007
120.072,27.117
120,27.218
119.904,27.313
119.784,27.4
119.652,27.48
119.508,27.553
119.328,27.619
119.148,27.678
118.944,27.73
118.728,27.775
118.5,27.814
118.248,27.846
117.996,27.871
117.732,27.89
117.456,27.904
117.168,27.911
116.868,27.913
116.58,27.909
116.268,27.9
115.968,27.885
115.656,27.866
115.344,27.843
115.044,27.815
114.732,27.783
114.432,27.747
114.132,27.708
113.832,27.665
113.544,27.62
113.256,27.572
112.98,27.521
112.716,27.468
112.464,27.414
112.224,27.357
111.984,27.3
111.768,27.241
111.564,27.182
111.36,27.121
111.18,27.061
111.012,27
110.856,26.94
110.712,26.88
110.58,26.82
110.472,26.761
110.364,26.702
110.268,26.644
110.196,26.588
110.124,26.532
110.064,26.477
110.004,26.423
109.956,26.371
109.92,26.319
109.896,26.268
109.86,26.219
109.836,26.17
109.812,26.122
109.8,26.074
109.776,26.027
109.752,25.98
109.716,25.933
109.692,25.885
109.644,25.838
109.596,25.789
109.548,25.74
109.488,25.69
109.404,25.638
109.32,25.584
109.224,25.528
109.104,25.47
108.984,25.409
108.828,25.345
108.672,25.278
108.492,25.207
108.288,25.132
108.072,25.053
107.832,24.97
107.58,24.882
107.292,24.789
106.992,24.691
106.668,24.587
106.32,24.478
105.936,24.363
105.54,24.242
105.12,24.115
104.664,23.982
104.196,23.842
103.692,23.696
103.152,23.544
102.6,23.385
102,23.22
101.388,23.048
100.728,22.87
100.044,22.685
99.324,22.494
98.58,22.297
97.788,22.094
96.96,21.885
96.096,21.67
95.196,21.449
94.248,21.223
93.264,20.992
92.232,20.756
91.152,20.515
90.036,20.27
88.872,20.02
87.66,19.766
86.4,19.509
85.092,19.248
83.724,18.983
82.308,18.716
80.844,18.446
79.32,18.174
77.748,17.899
76.128,17.623
74.448,17.344
72.72,17.064
70.932,16.783
69.084,16.501
67.2,16.218
65.256,15.935
63.264,15.651
61.212,15.366
59.124,15.081
56.988,14.796
54.804,14.512
52.572,14.227
50.304,13.942
48,13.658
45.66,13.374
43.284,13.09
40.872,12.806
38.436,12.522
35.976,12.239
33.492,11.955
30.996,11.672
28.476,11.388
25.956,11.104
23.424,10.82
20.88,10.535
18.336,10.25
15.804,9.963
13.272,9.676
10.74,9.388
8.232,9.098
5.736,8.806
3.264,8.513
0.816,8.218
-1.608,7.92
-3.996,7.62
-6.36,7.318
-8.688,7.012
-10.98,6.704
-13.224,6.392
-15.432,6.077
-17.592,5.758
-19.716,5.435
-21.78,5.108
-23.796,4.777
-25.752,4.442
-27.66,4.103
-29.508,3.759
-31.308,3.41
-33.048,3.057
-34.74,2.699
-36.36,2.336
-37.932,1.969
-39.432,1.597
-40.884,1.22
-42.276,0.838
-43.608,0.452
-44.892,0.061
-46.104,-0.334
-47.268,-0.734
-48.372,-1.138
-49.428,-1.546
-50.424,-1.957
-51.372,-2.373
-52.26,-2.791
-53.1,-3.213
-53.904,-3.638
-54.648,-4.065
-55.344,-4.495
-56.004,-4.927
-56.616,-5.361
-57.18,-5.797
-57.72,-6.234
-58.212,-6.672
-58.668,-7.11
-59.1,-7.549
-59.496,-7.988
-59.856,-8.427
-60.192,-8.865
-60.492,-9.303
-60.78,-9.74
-61.044,-10.175
-61.284,-10.609
-61.512,-11.041
-61.716,-11.472
-61.908,-11.899
-62.076,-12.325
-62.244,-12.748
-62.4,-13.168
-62.556,-13.585
-62.688,-13.999
-62.832,-14.409
-62.964,-14.817
-63.096,-15.22
-63.216,-15.621
-63.348,-16.017
-63.48,-16.41
-63.612,-16.798
-63.744,-17.183
-63.888,-17.564
-64.02,-17.941
-64.176,-18.314
-64.32,-18.683
-64.476,-19.048
-64.644,-19.41
-64.8,-19.767
-64.98,-20.12
-65.148,-20.469
-65.328,-20.815
-65.52,-21.157
-65.712,-21.495
-65.904,-21.829
-66.096,-22.16
-66.3,-22.487
-66.504,-22.811
-66.708,-23.132
-66.924,-23.449
-67.128,-23.762
-67.344,-24.073
-67.56,-24.38
-67.776,-24.685
-67.98,-24.986
-68.196,-25.285
-68.412,-25.581
-68.628,-25.874
-68.844,-26.164
-69.072,-26.452
-69.288,-26.737
-69.516,-27.02
-69.744,-27.301
-69.984,-27.579
-70.224,-27.855
-70.464,-28.129
-70.728,-28.4
-70.992,-28.67
-71.28,-28.937
-71.58,-29.203
-71.904,-29.467
-72.24,-29.729
-72.6,-29.989
-72.996,-30.247
-73.428,-30.504
-73.884,-30.759
-74.388,-31.013
-74.928,-31.265
-75.516,-31.516
-76.152,-31.765
-76.848,-32.013
-77.592,-32.26
-78.408,-32.506
-79.296,-32.75
-80.256,-32.994
-81.3,-33.236
-82.416,-33.478
-83.616,-33.718
-84.924,-33.958
-86.316,-34.196
-87.804,-34.434
-89.4,-34.671
-91.104,-34.908
-92.916,-35.143
-94.836,-35.378
-96.888,-35.612
-99.048,-35.845
-101.328,-36.078
-103.728,-36.309
-106.26,-36.54
-108.912,-36.77
-111.696,-36.999
-114.6,-37.227
-117.636,-37.455
-120.78,-37.681
-124.056,-37.906
-127.452,-38.129
-130.956,-38.352
-134.58,-38.573
-138.312,-38.792
-142.14,-39.01
-146.076,-39.226
-150.108,-39.441
-154.224,-39.653
-158.424,-39.863
-162.684,-40.071
-167.028,-40.276
-171.42,-40.479
-175.872,-40.68
-180.36,-40.877
-184.872,-41.072
-189.42,-41.264
-193.98,-41.452
-198.54,-41.638
-203.1,-41.82
-207.648,-41.999
-212.16,-42.174
-216.648,-42.346
-221.088,-42.514
-225.48,-42.679
-229.8,-42.839
-234.048,-42.996
-238.212,-43.15
-242.292,-43.299
-246.276,-43.445
-250.14,-43.587
-253.896,-43.725
-257.52,-43.859
-261.024,-43.99
-264.384,-44.118
-267.6,-44.241
-270.672,-44.362
-273.576,-44.479
-276.336,-44.592
-278.916,-44.703
-281.34,-44.811
-283.596,-44.916
-285.672,-45.018
-287.568,-45.118
-289.296,-45.215
-290.832,-45.31
-292.2,-45.404
-293.376,-45.495
-294.384,-45.586
-295.212,-45.674
-295.86,-45.762
-296.328,-45.85
-296.616,-45.936
-296.736,-46.023
-296.688,-46.11
-296.472,-46.197
-296.076,-46.284
-295.536,-46.373
-294.828,-46.463
-293.964,-46.554
-292.956,-46.648
-291.792,-46.743
-290.484,-46.842
-289.044,-46.943
-287.46,-47.047
-285.744,-47.155
-283.908,-47.266
-281.94,-47.382
-279.852,-47.502
-277.644,-47.627
-275.328,-47.756
-272.904,-47.891
-270.372,-48.031
-267.744,-48.177
-265.02,-48.329
-262.188,-48.487
-259.284,-48.65
-256.272,-48.82
-253.188,-48.997
-250.02,-49.18
-246.78,-49.369
-243.456,-49.565
-240.06,-49.768
-236.592,-49.976
-233.052,-50.192
-229.452,-50.413
-225.792,-50.641
-222.072,-50.874
-218.292,-51.114
-214.464,-51.359
-210.576,-51.609
-206.628,-51.864
-202.644,-52.124
-198.612,-52.388
-194.544,-52.657
-190.428,-52.929
-186.276,-53.205
-182.088,-53.484
-177.876,-53.765
-173.628,-54.049
-169.356,-54.335
-165.06,-54.622
-160.74,-54.911
-156.408,-55.2
-152.064,-55.49
-147.708,-55.781
-143.352,-56.072
-138.996,-56.363
-134.628,-56.653
-130.272,-56.943
-125.928,-57.233
-121.596,-57.522
-117.276,-57.81
-112.98,-58.098
-108.708,-58.385
-104.472,-58.672
-100.26,-58.959
-96.084,-59.246
-91.956,-59.533
-87.864,-59.821
-83.82,-60.11
-79.824,-60.401
-75.888,-60.693
-72.012,-60.988
-68.196,-61.287
-64.44,-61.589
-60.744,-61.895
-57.132,-62.206
-53.58,-62.522
-50.112,-62.845
-46.716,-63.174
-43.404,-63.511
-40.176,-63.856
-37.02,-64.21
-33.948,-64.572
-30.96,-64.945
-28.068,-65.327
-25.26,-65.72
-22.536,-66.124
-19.896,-66.539
-17.34,-66.965
-14.88,-67.402
-12.504,-67.85
-10.224,-68.31
-8.028,-68.78
-5.904,-69.26
-3.876,-69.749
-1.932,-70.248
-0.072,-70.754
1.704,-71.268
3.408,-71.787
5.028,-72.31
6.564,-72.836
8.028,-73.363
9.42,-73.89
10.74,-74.413
11.988,-74.932
13.164,-75.443
14.28,-75.945
15.324,-76.434
16.308,-76.908
17.232,-77.363
18.084,-77.798
18.888,-78.209
19.644,-78.592
20.34,-78.944
20.988,-79.263
21.588,-79.544
22.14,-79.784
22.644,-79.98
23.112,-80.129
23.544,-80.227
23.928,-80.27
24.276,-80.256
24.6,-80.18
24.888,-80.041
25.152,-79.835
25.38,-79.56
25.596,-79.212
25.788,-78.788
25.956,-78.288
26.112,-77.709
26.244,-77.048
26.376,-76.304
26.496,-75.477
26.604,-74.564
26.7,-73.565
26.808,-72.48
26.904,-71.308
27.012,-70.049
27.12,-68.704
27.228,-67.274
27.348,-65.76
27.48,-64.163
27.624,-62.485
27.78,-60.728
27.948,-58.894
28.14,-56.986
28.356,-55.008
28.584,-52.962
28.836,-50.851
29.124,-48.681
29.424,-46.454
29.748,-44.175
30.108,-41.849
30.492,-39.48
30.912,-37.073
31.356,-34.633
31.836,-32.165
32.34,-29.675
32.88,-27.167
33.444,-24.647
34.044,-22.121
34.68,-19.593
35.34,-17.069
36.024,-14.553
36.744,-12.053
37.5,-9.571
38.28,-7.113
39.084,-4.684
39.912,-2.289
40.764,0.069
41.652,2.385
42.552,4.655
43.476,6.876
44.424,9.044
45.384,11.156
46.368,13.209
47.352,15.201
48.36,17.13
49.38,18.994
50.412,20.79
51.444,22.519
52.488,24.178
53.532,25.767
54.576,27.287
55.62,28.736
56.664,30.116
57.708,31.426
58.74,32.667
59.76,33.841
60.768,34.949
61.764,35.992
62.736,36.972
63.696,37.891
64.632,38.751
65.544,39.555
66.432,40.304
67.284,41.001
68.112,41.65
68.916,42.251
69.672,42.809
70.392,43.326
71.064,43.805
71.7,44.248
72.3,44.658
72.84,45.039
73.344,45.392
73.788,45.721
74.184,46.028
74.52,46.315
74.796,46.584
75.024,46.839
75.192,47.08
75.3,47.31
75.348,47.532
75.324,47.745
75.252,47.952
75.108,48.155
74.904,48.354
74.628,48.551
74.292,48.746
73.896,48.94
73.428,49.134
72.912,49.329
72.324,49.523
71.676,49.719
70.968,49.915
70.2,50.113
69.372,50.31
68.496,50.509
67.56,50.707
66.576,50.904
65.544,51.101
64.464,51.297
63.348,51.49
62.172,51.68
60.972,51.868
59.736,52.051
58.464,52.229
57.156,52.401
55.824,52.568
54.468,52.727
53.1,52.879
51.708,53.023
50.292,53.158
48.876,53.284
47.448,53.399
46.02,53.505
44.58,53.599
43.14,53.683
41.712,53.755
40.284,53.816
38.868,53.864
37.452,53.901
36.06,53.927
34.68,53.94
33.312,53.941
31.968,53.931
30.636,53.91
29.34,53.877
28.056,53.834
26.796,53.78
25.56,53.717
24.36,53.643
23.172,53.561
22.02,53.47
20.892,53.371
19.788,53.264
18.72,53.151
17.676,53.031
16.656,52.905
15.672,52.775
14.7,52.639
13.776,52.5
12.864,52.357
11.976,52.212
11.124,52.064
10.296,51.914
9.48,51.763
8.7,51.61
7.944,51.458
7.212,51.305
6.492,51.152
5.808,51
5.136,50.848
4.488,50.698
3.864,50.548
3.264,50.4
2.688,50.253
2.124,50.107
1.584,49.963
1.068,49.82
0.576,49.678
0.096,49.537
-0.348,49.397
-0.78,49.258
-1.188,49.118
-1.572,48.979
-1.932,48.84
-2.268,48.7
-2.58,48.558
-2.868,48.415
-3.132,48.27
-3.372,48.123
-3.576,47.973
-3.756,47.819
-3.912,47.66
-4.044,47.498
-4.14,47.33
-4.2,47.156
-4.236,46.976
-4.248,46.789
-4.224,46.594
-4.176,46.391
-4.092,46.18
-3.972,45.959
-3.816,45.728
-3.636,45.487
-3.432,45.235
-3.18,44.972
-2.904,44.697
-2.592,44.41
-2.256,44.109
-1.872,43.796
-1.476,43.469
-1.032,43.129
-0.564,42.774
-0.06,42.405
0.48,42.021
